,local_timestamp,unix_timestamp,value,filtered_value
0,84.902642,1505150724.607785,1.2330909808332313,1.4581329768713711
1,84.905301,1505150724.6105049,1.2234837546040866,1.448507707102807
2,84.90795899999999,1505150724.613218,1.2139690645914711,1.438843395141908
3,84.910491,1505150724.615725,1.2045792463171032,1.4291445348511291
4,84.91315,1505150724.618371,1.1954066869858913,1.4194155276022045
5,84.915807,1505150724.620998,1.1863277069525544,1.4096606777821072
6,84.918466,1505150724.623631,1.177225183083128,1.3998841927627779
7,84.921126,1505150724.626415,1.1681351761898504,1.3900901881411458
8,84.923784,1505150724.628982,1.1591374074898606,1.3802826984825272
9,84.92644299999999,1505150724.6316328,1.1501983493684738,1.3704656925863872
10,84.929103,1505150724.634294,1.1415351117572254,1.3606430914536782
11,84.93176,1505150724.636866,1.133003749430403,1.350818787249434
12,84.93442,1505150724.6396701,1.1243877485029548,1.3409966623982283
13,84.937079,1505150724.6422741,1.1158131728060945,1.3311806086325852
14,84.939737,1505150724.644897,1.1073253218725516,1.3213745455157675
15,84.942397,1505150724.647568,1.0989103376215898,1.3115824369773101
16,84.94505699999999,1505150724.650329,1.0906157547602506,1.3018083038187445
17,84.94771399999999,1505150724.652875,1.082496707588238,1.2920562304748548
18,84.950373,1505150724.655562,1.0743797465789167,1.2823303652206395
19,84.953032,1505150724.6582022,1.0661426822032143,1.2726349138903508
20,84.955691,1505150724.660831,1.0579357181749176,1.262974127387256
21,84.958349,1505150724.663486,1.04984304605979,1.253352282665179
22,84.96100899999999,1505150724.6662002,1.041898342484137,1.2437736562973585
23,84.963667,1505150724.668842,1.0341527184338999,1.2342424902301212
24,84.96619799999999,1505150724.671322,1.0264327243824436,1.2247629508257964
25,84.968856,1505150724.674056,1.0186507414967263,1.2153390838172329
26,84.971516,1505150724.67665,1.0108656293669718,1.2059747682635695
27,84.97417399999999,1505150724.6793149,1.0031915308947283,1.1966736717942914
28,84.976832,1505150724.6819992,0.9955704805594969,1.1874392082122238
29,84.979492,1505150724.684662,0.9882133298047382,1.1782744979776312
30,84.982151,1505150724.687315,0.9809241283490734,1.1691823325188628
31,84.984809,1505150724.689945,0.9736154063710812,1.1601651441791627
32,84.98746799999999,1505150724.6926022,0.966332463403491,1.1512249840206632
33,84.990127,1505150724.695265,0.9591311788041103,1.1423635090878392
34,84.992785,1505150724.6979048,0.9519905419344032,1.1335819794633684
35,84.99544499999999,1505150724.700599,0.945003536045762,1.1248812644555013
36,84.998104,1505150724.703229,0.9381786548005733,1.1162618570039988
37,85.000762,1505150724.705908,0.9313047487321346,1.1077238956854476
38,85.003421,1505150724.7086,0.9243158056924228,1.0992671939460554
39,85.006081,1505150724.711204,0.9173587511395663,1.0908912756985896
40,85.00874,1505150724.7138402,0.9105185216974331,1.082595415187786
41,85.011399,1505150724.716602,0.9037940742846772,1.0743786780964264
42,85.014059,1505150724.719197,0.8972664712230248,1.066239961200525
43,85.016716,1505150724.721853,0.8907814854849271,1.0581780292966643
44,85.019375,1505150724.7245781,0.8841516604513919,1.0501915495842356
45,85.022035,1505150724.7271612,0.8776285277383642,1.0422791241895335
46,85.024565,1505150724.729671,0.8711915237421706,1.0344393208851443
47,85.02722399999999,1505150724.732373,0.8648486950903354,1.02667070120913
48,85.029882,1505150724.73502,0.8587417518342585,1.0189718451578003
49,85.032541,1505150724.737653,0.8527461202589345,1.0113413724719542
50,85.0352,1505150724.740354,0.8466378358982704,1.0037779615797062
51,85.037857,1505150724.7429912,0.8405299985724687,0.996280367649295
52,85.040517,1505150724.7456121,0.8344690999072254,0.9888474404188461
53,85.043176,1505150724.7484019,0.8285253243759468,0.9814781410332848
54,85.045833,1505150724.750986,0.8227547003480613,0.974171556283643
55,85.048492,1505150724.7536151,0.8170666287581103,0.966926909030549
56,85.05115099999999,1505150724.7563121,0.8113961405394161,0.9597435646910604
57,85.053809,1505150724.758997,0.8056864622644462,0.9526210344941158
58,85.056468,1505150724.7615738,0.8000506937534031,0.9455589761543182
59,85.05912699999999,1505150724.764259,0.7944675263445095,0.9385571919087266
60,85.061784,1505150724.766953,0.7890595966017006,0.9316156233070996
61,85.064444,1505150724.7696729,0.7837735583647226,0.924734342323942
62,85.067103,1505150724.772272,0.7784867750696406,0.9179135391655823
63,85.06976,1505150724.774915,0.7731493278234797,0.9111535078996497
64,85.07242,1505150724.7775419,0.7678966681895655,0.9044546310362285
65,85.075079,1505150724.780224,0.7627733506425232,0.8978173634791414
66,85.077737,1505150724.782965,0.757805899250859,0.8912422157039352
67,85.080269,1505150724.785419,0.7530515344769677,0.884729736314107
68,85.082927,1505150724.788075,0.7483283131318279,0.8782804950841759
69,85.08558599999999,1505150724.7907689,0.7435518946380553,0.8718950683903106
70,85.088246,1505150724.7933598,0.7387903773063647,0.8655740287550605
71,85.090904,1505150724.796038,0.7340820571233068,0.8593179389757603
72,85.093563,1505150724.798731,0.7294445174601386,0.8531273497817481
73,85.096222,1505150724.801378,0.7250184252869144,0.8470027991913855
74,85.098879,1505150724.8041139,0.7206346524140032,0.8409448120468609
75,85.101539,1505150724.806649,0.7161829302419979,0.8349538991260874
76,85.104198,1505150724.80933,0.7117031938852784,0.8290305558619293
77,85.106856,1505150724.8120031,0.7072619025267305,0.823175260420339
78,85.10951399999999,1505150724.814647,0.7029626192428242,0.8173884701068668
79,85.112174,1505150724.8173451,0.6988025128127642,0.811670614833578
80,85.11483199999999,1505150724.819975,0.6947715994579553,0.80602208719
81,85.117491,1505150724.8225951,0.690707903546566,0.8004432300169939
82,85.12015,1505150724.825283,0.686554353627822,0.7949343232825888
83,85.12280799999999,1505150724.827926,0.6824988533555778,0.7894955718333084
84,85.125466,1505150724.8306339,0.6786278294699091,0.784127094568572
85,85.128126,1505150724.8334231,0.674885551624629,0.7788289149134489
86,85.13078399999999,1505150724.8359392,0.6713119549341174,0.7736009528907567
87,85.133443,1505150724.838567,0.6677568356845877,0.7684430201191652
88,85.13610299999999,1505150724.841239,0.6641348102173096,0.7633548196124206
89,85.138633,1505150724.843766,0.6605327523072214,0.7583359516937751
90,85.14129199999999,1505150724.846384,0.6570060942772683,0.7533859258798469
91,85.14394999999999,1505150724.8491268,0.6536394747280762,0.748504177162408
92,85.14661,1505150724.851796,0.6504168004045964,0.7436900846695647
93,85.14926899999999,1505150724.854432,0.6472187129985519,0.7389429913257421
94,85.151927,1505150724.857037,0.644005277395563,0.7342622240664207
95,85.15458699999999,1505150724.859693,0.6408679867308132,0.7296471144987676
96,85.157246,1505150724.862446,0.6378397725725038,0.7250970194906164
97,85.159904,1505150724.8651662,0.6348634144582399,0.720611340683183
98,85.16256399999999,1505150724.867699,0.6320633370914064,0.7161895419504086
99,85.165223,1505150724.870357,0.6293566900108272,0.7118311643239721
100,85.167881,1505150724.8730218,0.6266561524067016,0.7075358385084453
101,85.17054,1505150724.875644,0.6238663568417047,0.703303295419966
102,85.173199,1505150724.878313,0.6211723757488952,0.6991333748204743
103,85.175857,1505150724.8810189,0.6185555826756706,0.6950260312478072
104,85.178516,1505150724.8836741,0.6161353359303079,0.6909813359080754
105,85.181175,1505150724.886417,0.6138317652840475,0.6869994736674742
106,85.18383399999999,1505150724.8889542,0.6114338702818078,0.683080735458924
107,85.186493,1505150724.8915951,0.6089459722605927,0.6792255072706663
108,85.18915199999999,1505150724.894319,0.6065220002247095,0.6754342565867626
109,85.191682,1505150724.896805,0.6041385593496894,0.6717075160219421
110,85.194341,1505150724.899498,0.6018779040502252,0.6680458631486889
111,85.197001,1505150724.902156,0.5997826516498715,0.6644498959114701
112,85.199659,1505150724.904974,0.597797518837304,0.6609202042803124
113,85.202319,1505150724.907427,0.5956496653348008,0.6574573401285213
114,85.204979,1505150724.9101079,0.593544578167473,0.6540617878678436
115,85.207636,1505150724.9127731,0.5915044600668228,0.6507339377091154
116,85.210295,1505150724.915544,0.5896161848077884,0.6474740622039469
117,85.212953,1505150724.918106,0.5878790073322658,0.6442822961757646
118,85.21561299999999,1505150724.920774,0.5862275115387149,0.6411586206386616
119,85.218272,1505150724.923378,0.5845591774320112,0.6381028521098332
120,85.22093,1505150724.9261582,0.5828617860592477,0.6351146389063596
121,85.22359,1505150724.9287,0.5812135685213548,0.6321934652047656
122,85.226249,1505150724.93136,0.5796391117357679,0.6293386622880591
123,85.22890699999999,1505150724.934054,0.5781911658162574,0.6265494254000387
124,85.231567,1505150724.936691,0.5768816516924888,0.6238248345103719
125,85.23422599999999,1505150724.939543,0.5755679652433374,0.6211638778880382
126,85.23688399999999,1505150724.9420202,0.5741978033898951,0.6185654780142595
127,85.239543,1505150724.9446678,0.5728835208942604,0.616028519371258
128,85.24220199999999,1505150724.9473732,0.5716976864157728,0.6135518769949213
129,85.24486,1505150724.950007,0.5706435782100903,0.6111344441536717
130,85.247391,1505150724.9525561,0.5697854202857864,0.608775157845336
131,85.25005,1505150724.9559062,0.5690032582881008,0.606473021870509
132,85.252708,1505150724.9579031,0.5681920390243553,0.6042271282839295
133,85.25536699999999,1505150724.960632,0.5674808065581802,0.6020366783056805
134,85.258026,1505150724.9631941,0.5669045786204683,0.5999010031581739
135,85.260684,1505150724.9660091,0.5665356258473173,0.597819584476642
136,85.263342,1505150724.968501,0.5665144661971608,0.5957920738154507
137,85.266001,1505150724.9711502,0.5667867104283995,0.5938183116104988
138,85.26866,1505150724.9738328,0.5672908167416344,0.591898347317776
139,85.27131899999999,1505150724.976426,0.5683735351785144,0.5900324635919054
140,85.273979,1505150724.979073,0.5703753572926138,0.5882212080345245
141,85.276637,1505150724.981806,0.5737752064332489,0.5864654371263559
142,85.279296,1505150724.984427,0.5789170014212729,0.5847663798049576
143,85.281953,1505150724.987088,0.586160307297725,0.5831257329828194
144,85.284613,1505150724.9897668,0.5955918488259225,0.5815458067398022
145,85.287272,1505150724.992515,0.6073518459410575,0.580029740805327
146,85.28993,1505150724.9950762,0.621645934679862,0.5785818143904876
147,85.29258999999999,1505150724.997725,0.6385025762619123,0.5772078677274681
148,85.295248,1505150725.000391,0.6580581163202593,0.5759158464696742
149,85.297906,1505150725.0030541,0.6803244757845686,0.5747164706741408
150,85.30056599999999,1505150725.005676,0.7050888660603086,0.5736240195446596
151,85.303226,1505150725.008368,0.7321569759939298,0.5726572121210501
152,85.305756,1505150725.010897,0.7615346170386443,0.571840152973552
153,85.308415,1505150725.0135412,0.7929832215895188,0.5712033013338402
154,85.311075,1505150725.016221,0.8264393106960839,0.570784413328737
155,85.313733,1505150725.018869,0.8617380775057124,0.5706294014598365
156,85.316392,1505150725.021578,0.8985306858140639,0.5707930537762317
157,85.319052,1505150725.0241752,0.9364010951758084,0.5713395570256259
158,85.32171,1505150725.026992,0.9752497658282379,0.5723427725471303
159,85.32436899999999,1505150725.029545,1.014942587312614,0.5738862200959463
160,85.327028,1505150725.032224,1.0552789899873132,0.5760627334921163
161,85.32968699999999,1505150725.03487,1.096178507577092,0.5789737636770771
162,85.332346,1505150725.0374541,1.1373609982348083,0.5827283192260971
163,85.335005,1505150725.04014,1.178537528427692,0.5874415502862935
164,85.337662,1505150725.0428648,1.2195395660125952,0.5932329975892248
165,85.340322,1505150725.045435,1.260310337561985,0.6002245422737886
166,85.34298199999999,1505150725.0481012,1.3008412004018546,0.6085381043606306
167,85.34564,1505150725.0508,1.3409800136673458,0.6182931482785919
168,85.348299,1505150725.0534148,1.380577616726018,0.6296040630562488
169,85.350957,1505150725.056062,1.4193625104047365,0.6425774918916726
170,85.353616,1505150725.058764,1.4571055148306795,0.6573096895069345
171,85.356275,1505150725.0613918,1.4938197430264797,0.6738839851569348
172,85.358932,1505150725.0640798,1.5295060890618615,0.692368424748743
173,85.361464,1505150725.066624,1.5639407374823533,0.7128136586200859
174,85.36412299999999,1505150725.0692291,1.597173309157688,0.735251133399903
175,85.36677999999999,1505150725.071879,1.6290533023508371,0.7596916373225846
176,85.36944,1505150725.074581,1.659481922357197,0.7861242381841202
177,85.3721,1505150725.0772018,1.6887120418972994,0.8145156419156225
178,85.374759,1505150725.0798411,1.716674370567463,0.8448099881156483
179,85.37741799999999,1505150725.0826418,1.743488266675965,0.8769290877340072
180,85.380077,1505150725.085344,1.7691984337090512,0.9107730980072825
181,85.382735,1505150725.0878458,1.7937415417278733,0.9462216205266166
182,85.38539399999999,1505150725.090583,1.8169703672510604,0.9831351994079962
183,85.388054,1505150725.0932322,1.8389534556241902,1.0213571874159868
184,85.390711,1505150725.095855,1.859912089104181,1.0607159385027531
185,85.39336999999999,1505150725.098655,1.8798225748433217,1.1010272764921671
186,85.39603,1505150725.101141,1.8987756609186923,1.1420971829791688
187,85.39868799999999,1505150725.103797,1.9168161998281599,1.1837246435035964
188,85.401347,1505150725.106575,1.9338754972145258,1.2257045891917406
189,85.404007,1505150725.109143,1.9498894780808376,1.267830870597324
190,85.40666499999999,1505150725.1117718,1.9649842062583092,1.3098992009284685
191,85.409323,1505150725.114441,1.9792571353469572,1.3517100071877715
192,85.41198299999999,1505150725.117134,1.992764889762693,1.3930711305681542
193,85.414641,1505150725.119766,2.005549490782588,1.4338003223885292
194,85.417172,1505150725.122279,2.017462969867168,1.4737274887754646
195,85.41982999999999,1505150725.1250932,2.028540642770567,1.5126966452419068
196,85.42249,1505150725.127628,2.038869532279344,1.5505675503073524
197,85.42514899999999,1505150725.13027,2.048451724556191,1.58721699512398
198,85.427807,1505150725.132948,2.0574795936035866,1.6225397342102068
199,85.430467,1505150725.1355798,2.065945837852111,1.6564490512876968
200,85.433126,1505150725.138245,2.073848371139072,1.6888769637288914
201,85.435784,1505150725.140908,2.080837910225267,1.7197740784550588
202,85.43844299999999,1505150725.143583,2.0871755234703735,1.7491091200311335
203,85.441103,1505150725.1462011,2.092964177904378,1.7768681574154184
204,85.443761,1505150725.14889,2.098173177133392,1.8030535600322142
205,85.44641999999999,1505150725.151595,2.1028791131305167,1.827682717881906
206,85.449079,1505150725.154175,2.10704711717648,1.8507865645405654
207,85.451737,1505150725.1568792,2.110447115328736,1.8724079452284628
208,85.454396,1505150725.159604,2.113163150141427,1.8925998736799194
209,85.457055,1505150725.1621492,2.1153688201528085,1.9114237209736187
210,85.459713,1505150725.1648262,2.116927034671726,1.9289473773985835
211,85.462373,1505150725.167598,2.1178959082302993,1.9452434259568427
212,85.465032,1505150725.1701708,2.1184138726242705,1.9603873636652855
213,85.46768999999999,1505150725.172801,2.118266798154521,1.9744559040959235
214,85.470348,1505150725.175515,2.1173269818620075,1.987525391255438
215,85.472878,1505150725.177972,2.115854896059924,1.999670350607137
216,85.475537,1505150725.1807082,2.1137812503445894,2.010962197713937
217,85.478196,1505150725.183421,2.111156112620599,2.021468119463263
218,85.480854,1505150725.185987,2.108065164569924,2.0312501380775805
219,85.483513,1505150725.18866,2.104363715908749,2.040364364142334
220,85.486172,1505150725.1913989,2.0999644458272724,2.0488604411098956
221,85.48883,1505150725.1939158,2.0950528737934158,2.0567811796195437
222,85.491489,1505150725.196617,2.0897166186402214,2.0641623754915908
223,85.494149,1505150725.199336,2.083898608916915,2.071032801201712
224,85.49680599999999,1505150725.201937,2.077805225718333,2.0774143578424296
225,85.499465,1505150725.2046,2.07126480765729,2.083322372955849
226,85.50212499999999,1505150725.207284,2.064180050145391,2.0887660284708436
227,85.50478199999999,1505150725.2099578,2.056660178700696,2.0937489015741666
228,85.507442,1505150725.212564,2.0488634436645174,2.0982695994145715
229,85.51010199999999,1505150725.215342,2.0408215845120896,2.102322466763871
230,85.512759,1505150725.2178931,2.0326754172250876,2.1058983452654356
231,85.515418,1505150725.220545,2.024273396985137,2.108985363987189
232,85.518078,1505150725.223222,2.015615970827101,2.1115697428611018
233,85.520736,1505150725.225891,2.0065954033491256,2.1136365921217477
234,85.523395,1505150725.2285419,1.997507929653402,2.1151706915035495
235,85.526055,1505150725.231169,1.9883434169497143,2.116157233230659
236,85.528713,1505150725.2339032,1.9790821957041143,2.116582513856078
237,85.531244,1505150725.236363,1.9699507635802487,2.116434562292336
238,85.533902,1505150725.238998,1.9606503522783727,2.115703694411617
239,85.53656199999999,1505150725.241709,1.951160100171572,2.1143829875027107
240,85.539221,1505150725.244329,1.9416792357968828,2.112468669931569
241,85.541879,1505150725.2469609,1.9322348792692947,2.1099604224792397
242,85.544539,1505150725.249697,1.92290377157353,2.1068615889475986
243,85.547198,1505150725.252297,1.913662368873499,2.1031792956727617
244,85.54985599999999,1505150725.254955,1.9045412185514698,2.098924482388605
245,85.552515,1505150725.257629,1.895345264395789,2.094111849537488
246,85.555174,1505150725.260278,1.886192672621767,2.08875972889205
247,85.55783199999999,1505150725.262937,1.87708642346182,2.082889885016269
248,85.560492,1505150725.265588,1.8682467560915206,2.0765272551469742
249,85.56315099999999,1505150725.268302,1.8594953036007467,2.069699635431538
250,85.565809,1505150725.270893,1.8509013563931798,2.062437322516309
251,85.568468,1505150725.273581,1.8422285820381987,2.054772720632812
252,85.57112699999999,1505150725.276313,1.833729853256336,2.0467399246438975
253,85.573785,1505150725.2788842,1.8252695694726448,2.0383742887957372
254,85.576444,1505150725.281604,1.8171549926492567,2.029711989896076
255,85.579104,1505150725.2842581,1.8091946428534176,2.020789593163772
256,85.581762,1505150725.286937,1.8014083386306965,2.011643629238811
257,85.58442099999999,1505150725.289553,1.7936744864985041,2.0023101911266243
258,85.586952,1505150725.292054,1.7859836987247288,1.9928245592634994
259,85.58961099999999,1505150725.294694,1.7783820199002038,1.9832208611456938
260,85.59227,1505150725.297358,1.770982698856753,1.9735317696529153
261,85.594929,1505150725.300113,1.7636788942622479,1.9637882422503368
262,85.597588,1505150725.302696,1.7566069517497391,1.9540193021904515
263,85.600247,1505150725.305364,1.7495248764470146,1.9442518624218286
264,85.602904,1505150725.3080041,1.7423933292861777,1.934510592467898
265,85.605564,1505150725.310674,1.7353488049119,1.9248178274898435
266,85.608222,1505150725.3133,1.7282907204801274,1.9151935171306482
267,85.61088,1505150725.316052,1.7212679518024894,1.9056552102631363
268,85.61354,1505150725.318651,1.7143375703297596,1.8962180710525471
269,85.616198,1505150725.3213382,1.7074149374613128,1.88689492179029
270,85.61885699999999,1505150725.32397,1.7003160238454356,1.8776963084054614
271,85.621516,1505150725.326601,1.693115335292538,1.8686305848759088
272,85.624175,1505150725.329292,1.6859484723775668,1.859704012519257
273,85.62683299999999,1505150725.331949,1.6787741588815546,1.8509208697366701
274,85.629492,1505150725.334595,1.6716554267201083,1.842283568117378
275,85.63215199999999,1505150725.337274,1.6644648709574266,1.833792772103251
276,85.63480899999999,1505150725.339915,1.6570919249708609,1.825447520894916
277,85.637469,1505150725.342548,1.649613627768375,1.8172453520450762
278,85.640129,1505150725.345241,1.6419721628410913,1.8091824259593992
279,85.642786,1505150725.3478909,1.6343472382037185,1.8012536498534666
280,85.64531699999999,1505150725.350463,1.6267340854843906,1.7934527994657194
281,85.647976,1505150725.353099,1.6191221248580292,1.7857726374834735
282,85.650634,1505150725.355763,1.611341781100141,1.7782050289237186
283,85.65329299999999,1505150725.3583832,1.6033510329336544,1.770741054712323
284,85.655951,1505150725.361071,1.5952987429677692,1.7633711246143788
285,85.65861,1505150725.363713,1.587162559459362,1.756085089649863
286,85.66126899999999,1505150725.366452,1.5789979147313782,1.748872353198201
287,85.663927,1505150725.369051,1.570884231977715,1.741721979907349
288,85.66658699999999,1505150725.3717198,1.562680844228318,1.7346228021729277
289,85.669246,1505150725.374325,1.5542981954990742,1.727563524721135
290,85.671904,1505150725.376987,1.5457856086364752,1.7205328280025158
291,85.67456399999999,1505150725.379658,1.5371265433506098,1.713519470340539
292,85.677222,1505150725.382357,1.5284281389968477,1.7065123875397497
293,85.67988,1505150725.384985,1.5197727990015029,1.6995007878421338
294,85.68254,1505150725.387711,1.5110290951150116,1.6924742402618191
295,85.685199,1505150725.39027,1.5021250547245177,1.6854227551880485
296,85.687857,1505150725.3929799,1.4930314715523405,1.6783368568637014
297,85.690516,1505150725.395596,1.4838672568718945,1.6712076472315787
298,85.693175,1505150725.398328,1.4746695145767639,1.664026859972313
299,85.695833,1505150725.4009469,1.4654646197238337,1.656786903270638
300,85.698492,1505150725.403648,1.4562436316158551,1.6494808904591134
301,85.70102399999999,1505150725.406101,1.446934428628351,1.642102658850331
302,85.703682,1505150725.4088168,1.4375200234365477,1.634646778035612
303,85.706341,1505150725.411417,1.4280849056294505,1.6271085492193125
304,85.709001,1505150725.4140952,1.4186289261954383,1.6194839968872483
305,85.711659,1505150725.416832,1.4092192893755013,1.6117698538176177
306,85.71431799999999,1505150725.419498,1.3998759627268291,1.6039635405550496
307,85.716977,1505150725.422079,1.3904222184671293,1.5960631409184836
308,85.719635,1505150725.424746,1.380751662299136,1.5880673753796912
309,85.722293,1505150725.427365,1.3710073453788367,1.579975573585656
310,85.72494999999999,1505150725.430021,1.361313096363133,1.5717876458990812
311,85.72761,1505150725.432745,1.3516432852532438,1.5635040526233681
312,85.73026899999999,1505150725.4353878,1.3420447016981065,1.5551257696074727
313,85.732928,1505150725.438036,1.332467277793126,1.5466542500699858
314,85.735587,1505150725.4406972,1.322794784474062,1.5380913837585088
315,85.73824599999999,1505150725.443347,1.3130281158106396,1.5294394551202395
316,85.740904,1505150725.445993,1.3033650102236873,1.5207011017688008
317,85.74356399999999,1505150725.4487119,1.2937725361450039,1.5118792737235478
318,85.746223,1505150725.451366,1.2843465080467766,1.5029771936075278
319,85.74888,1505150725.453999,1.2749228641344823,1.49399831857417
320,85.751541,1505150725.4566379,1.265473739235028,1.4849463055469903
321,85.754199,1505150725.459266,1.2559453401532972,1.4758249814603153
322,85.75672899999999,1505150725.461799,1.2464024869443469,1.4666383192386263
323,85.759388,1505150725.464565,1.2369360766968773,1.4573904187741862
324,85.762048,1505150725.467156,1.227573974583982,1.4480854911086445
325,85.76470599999999,1505150725.469826,1.2184079717640859,1.438727844031068
326,85.767366,1505150725.472461,1.2091655259827092,1.4293218682510085
327,85.77002499999999,1505150725.475104,1.1997687041621627,1.4198720243336402
328,85.772683,1505150725.477768,1.190425973559974,1.4103828306603028
329,85.775342,1505150725.4804459,1.1811500001639128,1.4008588516786673
330,85.778002,1505150725.483136,1.1720330221672668,1.3913046847902142
331,85.78066,1505150725.485801,1.1630763806746234,1.381724944521061
332,85.78331899999999,1505150725.488451,1.154150286564248,1.3721242439918913
333,85.785979,1505150725.491055,1.1450939562972757,1.362507175058089
334,85.788636,1505150725.493769,1.1360514841110398,1.3528782887884891
335,85.791302,1505150725.4964201,1.1271145121523447,1.3432420770170264
336,85.793967,1505150725.499233,1.1182222436798956,1.3336029544971175
337,85.796624,1505150725.5018072,1.1095861261836366,1.3239652408559799
338,85.799284,1505150725.50442,1.1010222793234754,1.314333142284629
339,85.801942,1505150725.507039,1.092436825778295,1.3047107340490391
340,85.80460099999999,1505150725.509761,1.0837937047358575,1.2951019455452564
341,85.807132,1505150725.512311,1.0752157017717183,1.2855105491214147
342,85.80978999999999,1505150725.514889,1.0667384306632537,1.2759401525936127
343,85.812449,1505150725.517588,1.0584304367560409,1.2663941944151857
344,85.815108,1505150725.520229,1.0502720505161316,1.2568759405657366
345,85.81776599999999,1505150725.5228522,1.0421333338101706,1.2473884831360265
346,85.820425,1505150725.525585,1.0339616855360083,1.237934741401789
347,85.82308499999999,1505150725.528163,1.0258921102221077,1.2285174661490483
348,85.825743,1505150725.53085,1.0178638111271745,1.2191392471804112
349,85.828402,1505150725.5335271,1.0100047892334931,1.2098025230886504
350,85.83106099999999,1505150725.536174,1.0023537875624768,1.2005095922332194
351,85.833719,1505150725.538805,0.9947343763550744,1.1912626244436941
352,85.836377,1505150725.541461,0.9870510391623402,1.1820636737503796
353,85.83903699999999,1505150725.544109,0.9794501053959194,1.172914692586707
354,85.841695,1505150725.546772,0.9719247205212546,1.1638175471336656
355,85.844354,1505150725.549475,0.9645246544196996,1.1547740325303604
356,85.84701299999999,1505150725.552129,0.9573054884258204,1.1457858864783328
357,85.849672,1505150725.5547788,0.9501495033591689,1.1368548004184251
358,85.85233099999999,1505150725.55741,0.9429064955059585,1.1279824283384323
359,85.85499,1505150725.560079,0.9357078931157525,1.1191703935975659
360,85.857648,1505150725.562721,0.9285896079891687,1.110420293622309
361,85.86030699999999,1505150725.5655339,0.9215505970448611,1.1017337015446034
362,85.862837,1505150725.5679538,0.9146972545800957,1.0931121637217218
363,85.865496,1505150725.5706089,0.9079467301336962,1.0845571928114417
364,85.868156,1505150725.5732381,0.9011574626658835,1.0760702571667322
365,85.870813,1505150725.575912,0.8943354126414903,1.0676527680040901
366,85.87347199999999,1505150725.578536,0.8875242404654169,1.0593060655477977
367,85.876132,1505150725.581223,0.8808447945621487,1.0510314043970912
368,85.87879,1505150725.5838962,0.8743006512105853,1.0428299376608328
369,85.88144899999999,1505150725.586621,0.8679713826162447,1.034702699692334
370,85.884108,1505150725.589213,0.8616562701258821,1.0266505883789128
371,85.886766,1505150725.59184,0.8552951130446859,1.0186743490254955
372,85.889425,1505150725.594557,0.8489832788099813,1.0107745619993798
373,85.892085,1505150725.597179,0.8428067471269814,1.0029516353320658
374,85.89474299999999,1505150725.599979,0.8367670081118946,0.9952058022990858
375,85.897401,1505150725.602578,0.8309412497843057,0.9875371236221729
376,85.900061,1505150725.605255,0.8251263693050366,0.9799454944290618
377,85.90271899999999,1505150725.607797,0.8192578446422722,0.9724306566724166
378,85.905377,1505150725.610473,0.8134492226510777,0.9649922174852075
379,85.908037,1505150725.613133,0.8077338819345166,0.9576296728246552
380,85.91069399999999,1505150725.615826,0.80220465673236,0.9503424346025274
381,85.913354,1505150725.618443,0.7968284664647857,0.9431298592812586
382,85.91601299999999,1505150725.621106,0.7915327424724544,0.9359912766861797
383,85.918544,1505150725.6236138,0.7861711553437206,0.9289260187398353
384,85.92120299999999,1505150725.6263192,0.7808049488547414,0.921933448056064
385,85.923861,1505150725.629004,0.7754955157932947,0.9150129855797257
386,85.92652,1505150725.6317492,0.7702562672052543,0.9081641353856723
387,85.92918,1505150725.634339,0.7651679673891048,0.9013865043250399
388,85.931837,1505150725.637076,0.7601978337882658,0.89467981480278
389,85.934496,1505150725.6397052,0.75523917408223,0.8880439102022099
390,85.937156,1505150725.642335,0.7502297014134944,0.881478753588344
391,85.939814,1505150725.64501,0.7453260269955413,0.8749844206878139
392,85.94247399999999,1505150725.6476521,0.7405005836785188,0.8685610878036811
393,85.945133,1505150725.650285,0.7358256420985247,0.8622090150246965
394,85.947791,1505150725.6529121,0.7313330907424146,0.8559285254338195
395,85.95044999999999,1505150725.655589,0.7268821136285134,0.8497199818757926
396,85.95311,1505150725.6582332,0.722382409714604,0.8435837635721612
397,85.95576799999999,1505150725.660888,0.7179275582985615,0.8375202448063616
398,85.958427,1505150725.663608,0.7135412522280963,0.831529776905407
399,85.96108699999999,1505150725.666238,0.7091989045857731,0.8256126735011312
400,85.963745,1505150725.668942,0.705037159027884,0.8197691983903261
401,85.966404,1505150725.671676,0.7008913577134226,0.8139995554159494
402,85.969064,1505150725.67421,0.6967238007023215,0.8083038802637559
403,85.971722,1505150725.676852,0.6925720389230274,0.8026822343152605
404,85.97425299999999,1505150725.679415,0.6885376983009397,0.7971346003981645
405,85.976911,1505150725.6821089,0.6846326997657239,0.7916608798210226
406,85.97957099999999,1505150725.684726,0.6809258866861991,0.7862608901798024
407,85.98223,1505150725.6873548,0.6773375378452264,0.7809343642434403
408,85.984888,1505150725.690005,0.6737298174935471,0.7756809512103658
409,85.98754799999999,1505150725.692673,0.670105258828715,0.7705002219757852
410,85.990207,1505150725.6952882,0.6665434340562483,0.7653916793210652
411,85.992865,1505150725.6980429,0.6630616285241621,0.7603547725413502
412,85.995525,1505150725.700633,0.6597303247291043,0.7553889149510371
413,85.99818499999999,1505150725.703316,0.6565916929597672,0.7504935025970488
414,86.00084299999999,1505150725.705942,0.653424897994095,0.7456679332208032
415,86.003502,1505150725.7085829,0.6501843422761168,0.7409116252981427
416,86.00616199999999,1505150725.711335,0.6469975797532547,0.7362240370095159
417,86.008819,1505150725.713932,0.6438693787973749,0.7316046841391748
418,86.011478,1505150725.71663,0.6408505523711773,0.7270531550680495
419,86.01413699999999,1505150725.719258,0.6381024800600099,0.722569121126412
420,86.016795,1505150725.7219641,0.6353412947262105,0.7181523416682399
421,86.019454,1505150725.724565,0.6325605888700836,0.7138026646182756
422,86.022114,1505150725.7272162,0.6298309939998981,0.7095200239406085
423,86.024772,1505150725.7298582,0.627169795463669,0.7053044350595116
424,86.027304,1505150725.732461,0.6246330216308249,0.7011559884113694
425,86.02996399999999,1505150725.7350988,0.6222017480255215,0.6970748409712823
426,86.03262199999999,1505150725.7377942,0.619867629996993,0.6930612059548691
427,86.035281,1505150725.740373,0.6174414227867975,0.6891153414385067
428,86.037939,1505150725.743098,0.6149801978457092,0.6852375387340792
429,86.040599,1505150725.7456808,0.6125879652850608,0.6814281107008084
430,86.043258,1505150725.748375,0.610352641961136,0.6776873792437184
431,86.04591599999999,1505150725.7510478,0.6082572405491614,0.6740156609994532
432,86.048575,1505150725.753788,0.6062566105280286,0.6704132510562687
433,86.051234,1505150725.756323,0.6042784812616396,0.6668804058527251
434,86.05389199999999,1505150725.758982,0.6022505821138967,0.6634173271354141
435,86.056551,1505150725.761634,0.6002752840683033,0.6600241485439285
436,86.05921,1505150725.764315,0.5983640610196627,0.656700925363461
437,86.06186799999999,1505150725.7669928,0.596636867322735,0.653447627077308
438,86.064527,1505150725.7696462,0.5950707551879141,0.6502641322450944
439,86.06718599999999,1505150725.772307,0.593488996832907,0.6471502259149513
440,86.06984299999999,1505150725.7749581,0.5918270702258986,0.6441056004923382
441,86.072503,1505150725.7775848,0.5902357751271591,0.641129860830951
442,86.07516299999999,1505150725.780264,0.5886692159574757,0.6382225332130025
443,86.07782,1505150725.782999,0.5872319988746643,0.6353830767857396
444,86.080479,1505150725.785596,0.5859707645160416,0.632610895801299
445,86.083011,1505150725.7881339,0.5847247293427426,0.6299053516961473
446,86.085668,1505150725.7907789,0.5834290732997104,0.6272657750017394
447,86.08832699999999,1505150725.793421,0.5821374405704404,0.6246914774688113
448,86.090987,1505150725.796104,0.5808952796992827,0.62218176427271
449,86.093644,1505150725.79877,0.579711978418349,0.6197359453233943
450,86.09630399999999,1505150725.801449,0.5787265645698646,0.6173533444029301
451,86.098964,1505150725.804093,0.5778773473428098,0.6150333054211854
452,86.101621,1505150725.806729,0.5769868538967879,0.6127751961990412
453,86.104281,1505150725.8094049,0.5760026321412701,0.6105784110737031
454,86.106939,1505150725.812049,0.5751216754389807,0.608442373473367
455,86.10959799999999,1505150725.8147042,0.5743423446620908,0.6063665385561479
456,86.112257,1505150725.817483,0.5737302049237611,0.604350395197865
457,86.114915,1505150725.820076,0.5733840509285957,0.6023934669166486
458,86.117575,1505150725.822664,0.5730401321077425,0.6004953124929079
459,86.120234,1505150725.825352,0.5727252705529493,0.598655528137159
460,86.122891,1505150725.828066,0.5725631459094969,0.5968737531884205
461,86.125551,1505150725.830637,0.572559718642218,0.5951496804331572
462,86.12821,1505150725.833345,0.5728696628135241,0.5934830711610131
463,86.130867,1505150725.835999,0.5735504969090519,0.5918737749586694
464,86.133527,1505150725.838631,0.5744852468064574,0.590321755055308
465,86.136186,1505150725.8413482,0.5756491765766845,0.5888271210830186
466,86.138717,1505150725.843822,0.5773227260901168,0.5873901715344656
467,86.141376,1505150725.8464708,0.5798703777712809,0.5860114478973536
468,86.144036,1505150725.849223,0.5836892475896626,0.5846918026613374
469,86.146693,1505150725.851913,0.5893127971477984,0.5834324856911705
470,86.14935299999999,1505150725.854468,0.5969150720188064,0.5822352581976024
471,86.152013,1505150725.85711,0.6065759424314464,0.5811025494049328
472,86.154671,1505150725.859763,0.6186576556359324,0.5800376756198802
473,86.15733,1505150725.862485,0.6334044416787887,0.5790451426876633
474,86.15999,1505150725.8651268,0.6508145124205656,0.578131050398516
475,86.16264699999999,1505150725.867815,0.670990685879629,0.5773036121021616
476,86.165306,1505150725.870406,0.6938352104327208,0.576573795129261
477,86.16796599999999,1505150725.873086,0.7191500496357709,0.5759560777197419
478,86.17062399999999,1505150725.87571,0.746890649014154,0.575469306456539
479,86.173284,1505150725.8785138,0.7770078347329995,0.5751376257216478
480,86.175941,1505150725.88105,0.8093160873243861,0.5749914390101449
481,86.1786,1505150725.883917,0.8436082806353736,0.5750683527273567
482,86.181259,1505150725.8864021,0.8797282504873425,0.575414047245561
483,86.183917,1505150725.889033,0.9173790167199979,0.5760830175337377
484,86.186576,1505150725.8916569,0.9561604831314375,0.5771391263563231
485,86.189235,1505150725.894343,0.9961310622770227,0.5786559165862334
486,86.191892,1505150725.8969972,1.0369930289383549,0.5807166354627273
487,86.194422,1505150725.899616,1.0786867784671055,0.5834139329392275
488,86.197081,1505150725.90223,1.1210081649427512,0.5868492087675855
489,86.199739,1505150725.9049149,1.1636527576239561,0.5911315978871469
490,86.202399,1505150725.907491,1.2064070228580845,0.596376599513698
491,86.20505899999999,1505150725.910198,1.2490808218169702,0.6027043704977625
492,86.207717,1505150725.91284,1.2916266197935713,0.610237717088306
493,86.210377,1505150725.9155478,1.333912988538324,0.6190998311198169
494,86.213036,1505150725.918209,1.375818930615123,0.6294118271377886
495,86.215694,1505150725.9208262,1.4171206305694957,0.641290145953306
496,86.218353,1505150725.923452,1.4574473474888412,0.6548438967439395
497,86.221013,1505150725.9261298,1.4967445431199398,0.6701722130109397
498,86.223671,1505150725.92881,1.5349408408964182,0.6873616969615178
499,86.22632999999999,1505150725.931527,1.5719203097772783,0.7064840229123853
500,86.22899,1505150725.9341068,1.607711410982097,0.7275937645094422
501,86.23164799999999,1505150725.936785,1.6423858191004883,0.7507265039225302
502,86.234307,1505150725.939391,1.6757556304785985,0.7758972740163196
503,86.23696699999999,1505150725.942081,1.7077573661659577,0.8030993766921738
504,86.23962499999999,1505150725.944735,1.738599344408473,0.8323036116643175
505,86.242285,1505150725.9474711,1.7681957345125516,0.8634579396746455
506,86.24494299999999,1505150725.9500911,1.7966131446727005,0.8964875931841991
507,86.247602,1505150725.952738,1.8238854005268454,0.9312956366236546
508,86.25013299999999,1505150725.95523,1.8499572187636626,0.9677639674515889
509,86.252791,1505150725.957888,1.8747122213072909,1.0057547384186512
510,86.255449,1505150725.9605901,1.8982906280929224,1.0451121705481126
511,86.25810899999999,1505150725.963226,1.920742358013532,1.0856647157093797
512,86.260767,1505150725.966055,1.9421642686226528,1.1272275181551126
513,86.263426,1505150725.9686022,1.9626077689294676,1.1696051170675754
514,86.266086,1505150725.971288,1.982053785446512,1.212594327412099
515,86.268744,1505150725.973856,2.000339895507091,1.2559872338015408
516,86.27140299999999,1505150725.976504,2.017670245031729,1.2995742308813656
517,86.274063,1505150725.9791832,2.034095199948263,1.3431470435871622
518,86.276721,1505150725.981845,2.0496186345588345,1.3865016619773576
519,86.27937999999999,1505150725.9844851,2.064337406416977,1.4294411288902347
520,86.28204,1505150725.9871821,2.0782398926162657,1.4717781243680879
521,86.28469799999999,1505150725.989808,2.0911641175248694,1.5133372979353663
522,86.287357,1505150725.992438,2.1033304693299812,1.5539573076442184
523,86.29001699999999,1505150725.995105,2.1146243580951904,1.593492532829249
524,86.292675,1505150725.9977732,2.1253040209593785,1.6318144358200195
525,86.295333,1505150726.000479,2.135179915140862,1.6688125568140513
526,86.297994,1505150726.003196,2.1445512559742483,1.7043951356973008
527,86.300651,1505150726.005763,2.1531267257408335,1.7384893642912964
528,86.30331,1505150726.008501,2.160998264610664,1.771041281607501
529,86.30583899999999,1505150726.010953,2.168179134617992,1.8020153325290105
530,86.308498,1505150726.013598,2.1746584579144987,1.8313936166051508
531,86.31115799999999,1505150726.0163488,2.1806724179191836,1.859174858673661
532,86.313816,1505150726.019006,2.186195980679749,1.8853731374611016
533,86.316474,1505150726.0216372,2.191017251671389,1.9100164124247152
534,86.319135,1505150726.0242271,2.194942813810278,1.9331448922731742
535,86.321792,1505150726.026888,2.1982800780701686,1.9548092896294667
536,86.324451,1505150726.02957,2.200999689161759,1.975069004881738
537,86.32710999999999,1505150726.0323,2.203199994754791,1.9939902797973572
538,86.329768,1505150726.0348868,2.2048802497911604,2.011644359444766
539,86.332427,1505150726.037591,2.2059877041570966,2.0281056993987994
540,86.33508599999999,1505150726.040193,2.2063386265241283,2.0434502531228427
541,86.337745,1505150726.04285,2.2060416463638335,2.057753870949199
542,86.34040399999999,1505150726.045553,2.2050510171086204,2.071090837014607
543,86.343063,1505150726.0482008,2.2035413803780903,2.0835325645483977
544,86.345721,1505150726.050914,2.2014066398982193,2.0951464641933892
545,86.34837999999999,1505150726.053646,2.198799681591969,2.105994995222905
546,86.35104,1505150726.05615,2.195619326568802,2.1161349054866574
547,86.353697,1505150726.058806,2.1917031521620247,2.1256166621805415
548,86.35635599999999,1505150726.061467,2.1871515922040694,2.134484071547374
549,86.359016,1505150726.064163,2.182115595466828,2.1427740811422136
550,86.36154599999999,1505150726.066766,2.176579962764976,2.1505167539337533
551,86.364205,1505150726.069312,2.170688788335847,2.1577354003281664
552,86.36686399999999,1505150726.0719821,2.164171616087652,2.1644468525200917
553,86.36952199999999,1505150726.074632,2.1571382675849358,2.170661864627104
554,86.372181,1505150726.0772521,2.1496893256717517,2.176385620904498
555,86.374839,1505150726.079954,2.1419115151114174,2.1816183329211274
556,86.377498,1505150726.082693,2.1336129089363163,2.186355905707011
557,86.380157,1505150726.085261,2.1251325085838144,2.1905906530101604
558,86.382815,1505150726.088005,2.1162864337138196,2.1943120425889386
559,86.385474,1505150726.090562,2.1069989864229552,2.197507453564367
560,86.388133,1505150726.0932329,2.097185677122216,2.2001629289740974
561,86.390791,1505150726.095922,2.087118750042841,2.2022639073253307
562,86.39345,1505150726.0986729,2.076859299949366,2.203795917306124
563,86.39611,1505150726.101276,2.0664989689885958,2.204745221042672
564,86.39876799999999,1505150726.103947,2.055958930013116,2.2050993941544847
565,86.401426,1505150726.106577,2.0452005890131346,2.2048478346886244
566,86.40408599999999,1505150726.10919,2.034080447797802,2.203982196390688
567,86.40674399999999,1505150726.111851,2.022901446992245,2.2024967438089282
568,86.409404,1505150726.1145768,2.011639893748754,2.200388627732593
569,86.41206299999999,1505150726.117205,2.000459998873472,2.1976580805965846
570,86.414593,1505150726.119715,1.9892830842306068,2.194308533569558
571,86.41725199999999,1505150726.122344,1.9780739830776444,2.19034665973846
572,86.41991,1505150726.1250272,1.9666887501888721,2.1857823500219933
573,86.42257,1505150726.127699,1.9553853246799304,2.1806286293501875
574,86.425229,1505150726.130334,1.9441903796309459,2.174901520379023
575,86.427886,1505150726.1330009,1.933024789871263,2.1686198615936467
576,86.430545,1505150726.135666,1.9221131159134577,2.1618050868728718
577,86.43320399999999,1505150726.138315,1.9113167769501673,2.154480974259037
578,86.435862,1505150726.140961,1.9005432367648623,2.1466733722297473
579,86.438521,1505150726.143614,1.8897707396609031,2.1384099117004256
580,86.44118,1505150726.1462579,1.8791679667930583,2.1297197109358073
581,86.443838,1505150726.149009,1.8687243383362495,2.120633078838669
582,86.446497,1505150726.151607,1.8585687493424863,2.1111812207398053
583,86.449157,1505150726.15444,1.8485088258092897,2.1013959504602124
584,86.451815,1505150726.1569312,1.8385044836106588,2.0913094126074085
585,86.45447399999999,1505150726.15956,1.8285189168762515,2.0809538188142747
586,86.457134,1505150726.16223,1.8186616491473704,2.0703612004219685
587,86.459791,1505150726.1649761,1.809018511117608,2.0595631784726387
588,86.46244899999999,1505150726.167595,1.7995397329056104,2.0485907508570436
589,86.465109,1505150726.170225,1.7903507822961082,2.0374740965686367
590,86.467766,1505150726.172874,1.7812430430199528,2.0262423978581983
591,86.470297,1505150726.175427,1.7720907492691724,2.014923681813509
592,86.472955,1505150726.1780522,1.763124123997934,2.0035446827482053
593,86.475614,1505150726.180748,1.7542303654092768,1.9921307256959764
594,86.478273,1505150726.183415,1.745521083207195,1.98070563011329
595,86.480931,1505150726.186154,1.7370512626797714,1.9692916324838903
596,86.48359099999999,1505150726.188704,1.728604538953575,1.957909326940079
597,86.486249,1505150726.191354,1.720099253660396,1.9465776236234296
598,86.488907,1505150726.194002,1.711550009939075,1.9353137244541405
599,86.49156699999999,1505150726.196696,1.703178388069772,1.924133114949896
600,86.494226,1505150726.199362,1.694863837651243,1.9130495695578322
601,86.496884,1505150726.201977,1.6867012790859508,1.9020751677944772
602,86.499544,1505150726.204679,1.6785990702270908,1.8912203194488129
603,86.502203,1505150726.20732,1.6704235476507872,1.8804937983165047
604,86.50486099999999,1505150726.209962,1.6622980929790792,1.8699027845405094
605,86.50752,1505150726.212606,1.654123613484121,1.8594529154035446
606,86.51017999999999,1505150726.215345,1.6459604588723455,1.8491483437597298
607,86.512838,1505150726.2180748,1.6379749261125878,1.838991802830809
608,86.515498,1505150726.2207098,1.6299955028292836,1.8289846762221282
609,86.518158,1505150726.223316,1.6220199538481208,1.8191270727152775
610,86.520816,1505150726.225924,1.6138499447017876,1.8094179060851048
611,86.52347499999999,1505150726.2286038,1.605665183404993,1.7998549800738723
612,86.52600699999999,1505150726.2311192,1.5975109694904668,1.7904350776779447
613,86.52866499999999,1505150726.233917,1.589323824007739,1.781154052963273
614,86.531323,1505150726.236474,1.5812189329397042,1.7720069235595621
615,86.53398299999999,1505150726.2392151,1.572906319672246,1.7629879626649867
616,86.536641,1505150726.241809,1.5644198098432904,1.7540907900019955
617,86.5393,1505150726.244386,1.5559270415262605,1.7453084610295648
618,86.541958,1505150726.2471411,1.547310444552329,1.7366335530069625
619,86.544618,1505150726.249825,1.5387337826927772,1.7280582461027476
620,86.547276,1505150726.252382,1.5302116590864454,1.7195743982391274
621,86.549934,1505150726.2550368,1.5215876115314728,1.711173613546997
622,86.552594,1505150726.257681,1.5127314038712623,1.702847305507569
623,86.555253,1505150726.2603672,1.503758073077087,1.6945867562472887
624,86.55791099999999,1505150726.26309,1.4947851893177742,1.6863831727263061
625,86.560571,1505150726.265714,1.4857118717260285,1.6782277395277192
626,86.56322899999999,1505150726.2684748,1.4767062054101352,1.6701116676849523
627,86.56588699999999,1505150726.271127,1.4676740150257357,1.6620262396116663
628,86.568547,1505150726.273737,1.458383438490834,1.6539628510783193
629,86.57120599999999,1505150726.2763891,1.4489384859167627,1.6459130515255698
630,86.573865,1505150726.2789812,1.4393740260227934,1.637868583320585
631,86.57652399999999,1505150726.281721,1.4298199969422816,1.6298214192609393
632,86.579184,1505150726.2843158,1.420366848729065,1.6217637969033685
633,86.58171399999999,1505150726.2868228,1.410916531736644,1.6136882488927968
634,86.584374,1505150726.289514,1.4014326871295384,1.6055876299689085
635,86.587034,1505150726.292119,1.3917187685798864,1.5974551425614918
636,86.589691,1505150726.2947588,1.3819416691030066,1.5892843628670155
637,86.59235,1505150726.297445,1.3722496552616152,1.581069268065542
638,86.59501,1505150726.300138,1.3626083053713027,1.572804264025959
639,86.597668,1505150726.302794,1.3531111987299442,1.5644842126240728
640,86.600326,1505150726.30543,1.3436142411002063,1.556104458675345
641,86.602986,1505150726.308071,1.3339030047597291,1.547660857430104
642,86.605644,1505150726.3107579,1.32411875272505,1.5391498034974889
643,86.60830299999999,1505150726.3135161,1.314379204176617,1.5305682606870357
644,86.610962,1505150726.3161201,1.3046997073113744,1.521913790557971
645,86.613621,1505150726.3187451,1.2951906797403503,1.5131845768489456
646,86.61627899999999,1505150726.321425,1.2857175639699439,1.5043794438163627
647,86.618937,1505150726.3240619,1.2761669621567107,1.4954978679886182
648,86.621597,1505150726.326686,1.2665442387190007,1.4865399837584716
649,86.624257,1505150726.329335,1.2569234524323614,1.477506582976545
650,86.626915,1505150726.33203,1.2474060802105713,1.46839910773766
651,86.629575,1505150726.33474,1.2380335472842185,1.4592196349925337
652,86.632234,1505150726.337378,1.228784395979905,1.4499708521684107
653,86.63476399999999,1505150726.339856,1.2194842827012708,1.4406560243128692
654,86.637424,1505150726.342561,1.210126501925379,1.4312789543631557
655,86.640084,1505150726.345162,1.2007337034185948,1.421843938147149
656,86.642742,1505150726.347847,1.191415857757083,1.4123557147524333
657,86.64540099999999,1505150726.350535,1.182236741914555,1.4028194119478665
658,86.64806,1505150726.353184,1.1732525332720598,1.3932404863544465
659,86.650719,1505150726.3558059,1.1642325618405678,1.383624659123312
660,86.65337699999999,1505150726.358465,1.1551106664604345,1.3739778491216106
661,86.656036,1505150726.361131,1.1460126129396326,1.364306105916019
662,86.658694,1505150726.3637629,1.1370649121442384,1.35461554394834
663,86.661354,1505150726.366615,1.128293939131137,1.3449122783028187
664,86.664013,1505150726.369104,1.1196937334354957,1.3352023625465403
665,86.666671,1505150726.3717601,1.1111182636689105,1.3254917301981926
666,86.66933,1505150726.374439,1.1024632216968073,1.3157861423031867
667,86.67199,1505150726.377179,1.0939317103583641,1.3060911433677709
668,86.67464799999999,1505150726.379762,1.0854699364584646,1.2964120266176664
669,86.677307,1505150726.382426,1.0771138117977268,1.2867538082345025
670,86.679966,1505150726.38506,1.0688503723651392,1.277121209700851
671,86.68262399999999,1505150726.387746,1.0607560611221827,1.2675186475330011
672,86.685282,1505150726.3903658,1.0526110859281472,1.257950229994203
673,86.68794,1505150726.3930008,1.0444467392234051,1.248419760466939
674,86.690472,1505150726.395576,1.036341252108887,1.2389307467176018
675,86.693131,1505150726.398242,1.0283539312096792,1.229486414436428
676,86.69578899999999,1505150726.400903,1.0205339503606528,1.2200897229285446
677,86.698449,1505150726.403606,1.0129094727581425,1.2107433812849158
678,86.70111,1505150726.406181,1.0051660838822176,1.2014498645257292
679,86.703767,1505150726.408833,0.9974326787848877,1.1922114301273694
680,86.706426,1505150726.4116962,0.9897673719982727,1.183030135197642
681,86.709086,1505150726.414204,0.9821780611382759,1.1739078536001752
682,86.711744,1505150726.4169111,0.9747185394000136,1.164846291653579
683,86.71440299999999,1505150726.4195971,0.967444239106431,1.155847001308675
684,86.717062,1505150726.422239,0.9601580178831827,1.1469113906568877
685,86.71972,1505150726.424814,0.9527865620128251,1.1380407325111024
686,86.72237899999999,1505150726.4274611,0.9455147949167964,1.1292361719119186
687,86.725039,1505150726.4301178,0.9383719228727772,1.12049873269516
688,86.72769699999999,1505150726.4328818,0.931306983906447,1.1118293226035232
689,86.730355,1505150726.435454,0.9244725659175257,1.1032287366376325
690,86.733015,1505150726.438169,0.917721296413022,1.0946976592352373
691,86.73567299999999,1505150726.440755,0.910847688367825,1.086236666716678
692,86.738331,1505150726.443446,0.9040311517734022,1.0778462315383264
693,86.740991,1505150726.446063,0.8973153470346539,1.069526728976992
694,86.74364899999999,1505150726.4487948,0.8907115990347624,1.0612784456154005
695,86.74618,1505150726.4512918,0.8842860689333718,1.0531015885145616
696,86.748837,1505150726.453951,0.8780447171953152,1.0449962945170925
697,86.751497,1505150726.456583,0.8717276675538819,1.0369626401066292
698,86.754156,1505150726.459255,0.8653741100653476,1.0290006527966657
699,86.75681399999999,1505150726.4618938,0.8591406559431943,1.0211103245376723
700,86.759473,1505150726.464573,0.8529557796094286,1.0132916264083338
701,86.76213299999999,1505150726.467242,0.8469926325674434,1.0055445230059443
702,86.76478999999999,1505150726.469985,0.8411320055205825,0.9978689851835076
703,86.767449,1505150726.472554,0.8353186151575217,0.9902650007639637
704,86.77010899999999,1505150726.4751842,0.8294234174146305,0.9827325837168066
705,86.77276599999999,1505150726.477831,0.8235575749610409,0.9752717822748174
706,86.775426,1505150726.480572,0.8178274820940186,0.9678826856147127
707,86.77808499999999,1505150726.483202,0.8122112341053029,0.960565427912927
708,86.780743,1505150726.485874,0.8067834858169249,0.9533201887081859
709,86.783402,1505150726.488582,0.8014628768839167,0.9461471895431266
710,86.78606099999999,1505150726.4911518,0.7960536060365203,0.9390466880338201
711,86.788719,1505150726.493778,0.7906550640258231,0.9320189709544622
712,86.79137999999999,1505150726.4965582,0.7854135802634704,0.925064347293206
713,86.79405,1505150726.4992168,0.780328558702979,0.9181831412025444
714,86.79657999999999,1505150726.50167,0.7755133971877931,0.9113756844910657
715,86.799239,1505150726.504341,0.7708380085729366,0.9046423091632457
716,86.801897,1505150726.507019,0.7661170224021091,0.8979833417432824
717,86.804557,1505150726.509637,0.7613894797199654,0.891399101545573
718,86.807216,1505150726.512277,0.756762072847013,0.8848899040784861
719,86.809874,1505150726.514998,0.7521732599838531,0.8784560689856672
720,86.81253199999999,1505150726.517656,0.7477680294375437,0.8720979305962231
721,86.815192,1505150726.520301,0.7434817101646489,0.8658158489415201
722,86.81784999999999,1505150726.522958,0.7391667806605566,0.8596102197251578
723,86.82051,1505150726.525593,0.7348277112738915,0.8534814824447844
724,86.823169,1505150726.528386,0.7305084604327953,0.8474301259664199
725,86.82582699999999,1505150726.531083,0.7262933687146526,0.8414566903533477
726,86.828486,1505150726.5336041,0.7222579850112191,0.8355617634441814
727,86.83114599999999,1505150726.5362492,0.7184867989114999,0.8297459713001539
728,86.833804,1505150726.538945,0.71469549624297,0.824009963163335
729,86.836463,1505150726.541566,0.710795713114483,0.818354393091018
730,86.839123,1505150726.54421,0.7069339279493051,0.812779900759478
731,86.84178,1505150726.546853,0.7031116308636445,0.8072870927677236
732,86.84443999999999,1505150726.549681,0.6993978142379411,0.8018765242449378
733,86.8471,1505150726.552199,0.6959997532367559,0.7965486800173427
734,86.84962999999999,1505150726.5547452,0.6926557834539284,0.7913039553591589
735,86.852289,1505150726.5573828,0.6892309003609955,0.7861426377556444
736,86.854946,1505150726.560152,0.6857873908154601,0.7810648918817708
737,86.857607,1505150726.562693,0.6823587824320068,0.7760707492798927
738,86.860266,1505150726.565372,0.6790744172975074,0.771160102583258
739,86.862923,1505150726.56806,0.6759676740150258,0.7663327030354428
740,86.865583,1505150726.5708108,0.6729612155533562,0.761588160272394
741,86.868242,1505150726.57334,0.669935236569359,0.7569259443923937
742,86.87089999999999,1505150726.5759912,0.6667936245676055,0.752345391099394
743,86.87356,1505150726.578629,0.6637265183762621,0.7478457103445365
744,86.87621899999999,1505150726.581347,0.6607307887512915,0.7434259976902381
745,86.87887599999999,1505150726.584032,0.6578891371422492,0.7390852467281858
746,86.881535,1505150726.586653,0.6551586482023387,0.7348223611121217
747,86.884194,1505150726.589337,0.6524396331572314,0.7306361658408789
748,86.88685199999999,1505150726.591956,0.6497130185194623,0.7265254184108586
749,86.889511,1505150726.5945978,0.6469908742303178,0.7224888206312152
750,86.89217,1505150726.597337,0.6443196919154938,0.7185250312776421
751,86.89482799999999,1505150726.599953,0.6417362774453329,0.7146326789911508
752,86.897487,1505150726.6026409,0.6392850362828395,0.7108103745533855
753,86.90014599999999,1505150726.60531,0.6368898234897746,0.7070567220540952
754,86.902676,1505150726.607778,0.634447970059393,0.703370329144894
755,86.905335,1505150726.6104052,0.6320208687794726,0.6997498169183806
756,86.907995,1505150726.613107,0.6296535211595011,0.696193829620873
757,86.910652,1505150726.61582,0.627447553124878,0.6927010437881687
758,86.913311,1505150726.618421,0.625366605840123,0.6892701762487519
759,86.91597,1505150726.621102,0.6233962251780167,0.685899991051178
760,86.918627,1505150726.623855,0.6213516367287419,0.6825893062304167
761,86.92128699999999,1505150726.62642,0.6193368506036312,0.6793370016079519
762,86.92394499999999,1505150726.629035,0.6174566219721211,0.6761420281879056
763,86.926605,1505150726.631774,0.6156851718238099,0.673003418751536
764,86.92926399999999,1505150726.634418,0.6141475209085656,0.6699202989017127
765,86.931922,1505150726.637064,0.6127478547542009,0.6668918983561429
766,86.93458199999999,1505150726.639672,0.6113762027845504,0.663917563200782
767,86.937241,1505150726.642315,0.6100222831977775,0.6609967702786795
768,86.939899,1505150726.6450071,0.6088017290116386,0.6581291444024464
769,86.942559,1505150726.647671,0.6077790622579492,0.6553144779680794
770,86.945218,1505150726.6504488,0.6069480244486346,0.6525527517857239
771,86.947875,1505150726.6531022,0.6064756576106344,0.6498441561569293
772,86.950535,1505150726.655643,0.6061514083237295,0.6471891122009392
773,86.953193,1505150726.658308,0.6059427920545811,0.644588294453776
774,86.95572399999999,1505150726.6608589,0.6060375634454228,0.6420426560885629
775,86.958383,1505150726.6634932,0.6066266063825253,0.6395534576038735
776,86.96104199999999,1505150726.666208,0.6079683070163909,0.6371222994737876
777,86.9637,1505150726.6688,0.6104652947464762,0.6347511603738194
778,86.966359,1505150726.671487,0.6143336364229701,0.6324424456848852
779,86.969019,1505150726.674103,0.6197578084324484,0.6301990554558644
780,86.971677,1505150726.6767712,0.62707368296824,0.6280244855655153
781,86.974336,1505150726.6794538,0.6366619847215405,0.625922979087992
782,86.976996,1505150726.682127,0.6487819939125773,0.6238997462683945
783,86.979653,1505150726.684744,0.663491974085091,0.6219612712328082
784,86.98231299999999,1505150726.687435,0.6808054852965764,0.6201157214228128
785,86.984973,1505150726.690075,0.7005443096485322,0.6183734708662079
786,86.98763,1505150726.692715,0.7227351202210855,0.6167477400607984
787,86.99029,1505150726.695363,0.7473448364344142,0.6152553439107609
788,86.992948,1505150726.698096,0.7743472322432537,0.6139175265546098
789,86.99560799999999,1505150726.700741,0.8036345722457512,0.6127608502543839
790,86.998267,1505150726.703381,0.83505307644922,0.6118180963141208
791,87.000925,1505150726.706029,0.8682300667899887,0.6111291296932028
792,87.003585,1505150726.708672,0.902920419151808,0.6107416752240282
793,87.006244,1505150726.711329,0.9390159510979623,0.6107119516650722
794,87.00890199999999,1505150726.713998,0.9764364943764504,0.6111051104088748
795,87.011433,1505150726.71673,1.0148750850483825,0.6119954294679252
796,87.01409199999999,1505150726.7192261,1.0542929800923455,0.6134662210203056
797,87.01675,1505150726.721848,1.0943580326055309,0.6156094217743686
798,87.01941,1505150726.724555,1.134791143822142,0.6185248484175081
799,87.02207,1505150726.727155,1.175487409561122,0.6223191141323721
800,87.024728,1505150726.7298071,1.2164334187765966,0.627104215679067
801,87.027388,1505150726.7326012,1.2573810671199004,0.6329958136853832
802,87.030047,1505150726.735162,1.2982182978521764,0.6401112416892415
803,87.03270499999999,1505150726.737824,1.3387379848204841,0.6485672915759219
804,87.035364,1505150726.740457,1.378708861989311,0.6584778331577843
805,87.038024,1505150726.743104,1.4179176937292632,0.6699513327996499
806,87.04068099999999,1505150726.74576,1.4563376579485927,0.6830883398379439
807,87.04334,1505150726.748656,1.4938322600026286,0.6979790103328715
808,87.04599999999999,1505150726.751127,1.5302080828075457,0.7147007361550668
809,87.04865799999999,1505150726.753786,1.565464679328482,0.7333159441131459
810,87.051317,1505150726.756408,1.599328017194749,0.75387012483377
811,87.05397699999999,1505150726.7590652,1.6318316240210309,0.7763901443429443
812,87.056634,1505150726.761727,1.663115570730899,0.8008828830099416
813,87.059293,1505150726.764377,1.69313202459407,0.8273342374245707
814,87.061951,1505150726.767058,1.722008539557966,0.8557085118201092
815,87.06461,1505150726.769768,1.7498115748054728,0.8859482172417511
816,87.06714199999999,1505150726.772219,1.7763329611023044,0.9179742884466825
817,87.0698,1505150726.7749078,1.8014911890918726,0.9516867197902429
818,87.07245999999999,1505150726.7775621,1.8254986003338456,0.9869656114127583
819,87.07512,1505150726.780245,1.8484714238924638,1.0236726060210006
820,87.077778,1505150726.782887,1.8702731651230553,1.0616526858337862
821,87.08043699999999,1505150726.7856588,1.8912388021492244,1.1007362902125462
822,87.083096,1505150726.788221,1.9111178464363723,1.1407417073293038
823,87.085754,1505150726.790858,1.9298086720590992,1.181477687443289
824,87.088413,1505150726.7935748,1.947421845640054,1.2227462203949158
825,87.091072,1505150726.7961469,1.9642036833884526,1.264345415548745
826,87.09373,1505150726.798843,1.980068056587461,1.3060724194500946
827,87.09638799999999,1505150726.801533,1.9951678511600406,1.3477263062210836
828,87.099048,1505150726.804172,2.009491593211388,1.389110878430482
829,87.101706,1505150726.806798,2.0228679193775605,1.4300373208714803
830,87.10436399999999,1505150726.809438,2.0352953395423494,1.4703266552706609
831,87.107023,1505150726.812115,2.0470428196813355,1.5098119497408677
832,87.10968199999999,1505150726.814788,2.057954940674003,1.5483402429160584
833,87.112341,1505150726.8174531,2.068318400878811,1.5857741499933975
834,87.11500199999999,1505150726.820124,2.077894632690825,1.6219931267318717
835,87.11766,1505150726.822766,2.0868067197088433,1.6568943771663924
836,87.12019099999999,1505150726.8252769,2.0948391911291595,1.690393400311806
837,87.122849,1505150726.8279328,2.102224654091874,1.7224241796531694
838,87.125508,1505150726.830689,2.1089794998752773,1.7529390266570075
839,87.12816699999999,1505150726.8334231,2.115100450223711,1.781908096461933
840,87.130825,1505150726.8359401,2.1206995618760325,1.8093186007800373
841,87.133483,1505150726.8385851,2.1256114319331307,1.8351737495893738
842,87.13614299999999,1505150726.841208,2.1297798830139567,1.8594914586480473
843,87.138801,1505150726.843912,2.1332810600567496,1.8823028634968522
844,87.141459,1505150726.846561,2.136178293000358,1.9036506822734431
845,87.14411899999999,1505150726.84925,2.138628044046643,1.9235874700030902
846,87.146777,1505150726.851897,2.1403637314059574,1.942173806980347
847,87.149435,1505150726.854675,2.141487428038563,1.9594764635075501
848,87.15209399999999,1505150726.857186,2.1418383504055947,1.975566581802853
849,87.154752,1505150726.859838,2.141602614021457,1.9905179127519221
850,87.157411,1505150726.8624902,2.1406736755772635,2.0044051407674073
851,87.16006999999999,1505150726.865219,2.139282056050423,2.0173023252711273
852,87.162728,1505150726.8678908,2.1372814260292903,2.0292814828760255
853,87.165387,1505150726.870506,2.134838529517563,2.0404113303253384
854,87.168047,1505150726.873133,2.131737746699914,2.0507562043356384
855,87.170705,1505150726.875829,2.1278598682796876,2.0603751701647743
856,87.17336399999999,1505150726.878456,2.1235024704636616,2.0693213255405625
857,87.176024,1505150726.8811562,2.1185002993643463,2.077641300740681
858,87.17855399999999,1505150726.883693,2.1131758161291967,2.0853749501622225
859,87.181214,1505150726.8863318,2.107317573268269,2.092555226662099
860,87.183872,1505150726.8889742,2.100986218511237,2.099208227284548
861,87.18652999999999,1505150726.891624,2.094089364653192,2.1053533969100915
862,87.189189,1505150726.89427,2.086748158141861,2.1110038741016495
863,87.191847,1505150726.8969831,2.078925197060418,2.116166960947875
864,87.19450599999999,1505150726.899727,2.0707918447728066,2.120844696615042
865,87.197166,1505150726.902285,2.0623695589524242,2.1250345132258417
866,87.19982399999999,1505150726.904952,2.053641501286119,2.1287299527844334
867,87.202483,1505150726.907594,2.0443202283573285,2.1319214247956952
868,87.20514299999999,1505150726.910224,2.0346310457367327,2.1345969850863424
869,87.20780099999999,1505150726.9129002,2.024662466327099,2.1367431165089097
870,87.21046,1505150726.9156978,2.0145651408770764,2.1383454923437126
871,87.21311999999999,1505150726.9182851,2.004250407472277,2.139389704623097
872,87.215777,1505150726.920964,1.9938695129078337,2.139861942610742
873,87.218437,1505150726.923579,1.9829952408668543,2.1397496102665925
874,87.221097,1505150726.926214,1.972013978482126,2.139041874438562
875,87.223754,1505150726.928878,1.960865674070458,2.1377301372432633
876,87.22641399999999,1505150726.9315982,1.9496044188502084,2.135808427297562
877,87.229074,1505150726.9342039,1.9383474849669626,2.133273706207284
878,87.231731,1505150726.937047,1.927169974277614,2.1301260892941376
879,87.234262,1505150726.93941,1.9159200439405468,2.126368982507903
880,87.236921,1505150726.942048,1.9043154659459272,2.1220091401403236
881,87.23957999999999,1505150726.944685,1.8928022320748705,2.117056649422344
882,87.242239,1505150726.947336,1.8812025714637381,2.111524848057069
883,87.244897,1505150726.950176,1.86973448811379,2.1054301803366187
884,87.247557,1505150726.952696,1.858362517259271,2.0987919980102125
885,87.250216,1505150726.9553332,1.8470666913429912,2.0916323135271906
886,87.25287399999999,1505150726.957988,1.8356887600236391,2.083975514774033
887,87.255533,1505150726.960622,1.8243951692816716,2.075848051083953
888,87.25819299999999,1505150726.963331,1.813176978419839,2.0672780998327114
889,87.260851,1505150726.9659982,1.8020690561574135,2.058295221898953
890,87.26351,1505150726.9687989,1.7912308449286727,2.0489300134890946
891,87.26617,1505150726.971297,1.7804078328852553,2.039213761584714
892,87.268828,1505150726.973927,1.769577370260797,2.0291781101549793
893,87.271487,1505150726.976598,1.758818135191091,2.018854743543234
894,87.274148,1505150726.9792461,1.7482040374400638,2.0082750917894865
895,87.276805,1505150726.982004,1.7378147982248544,1.9974700608223819
896,87.27946399999999,1505150726.9846048,1.7276918427760508,1.9864697894761687
897,87.282124,1505150726.987293,1.7177660297015922,1.97530343536727
898,87.284781,1505150726.9898748,1.7077925329084713,1.963998992080018
899,87.28743999999999,1505150726.992599,1.6978895186119984,1.952583139804541
900,87.28997199999999,1505150726.995095,1.6880340390225672,1.9410811299793522
901,87.29263,1505150726.9977431,1.6783710824472358,1.9295167022104496
902,87.295289,1505150727.00041,1.6687511902303214,1.9179120300182815
903,87.297947,1505150727.00309,1.659389982187151,1.9062876914463722
904,87.300606,1505150727.005734,1.649947860833875,1.8946626609154265
905,87.303266,1505150727.008367,1.6404440486695795,1.8830543191738471
906,87.30592299999999,1505150727.011044,1.6309421736563547,1.8714784781063964
907,87.308583,1505150727.013702,1.6215502692192953,1.8599494164612553
908,87.311242,1505150727.016366,1.6122430033828619,1.8484799220940462
909,87.31389999999999,1505150727.0190132,1.6030443670180063,1.837081336962957
910,87.31656,1505150727.021698,1.5938989278017837,1.825763602673008
911,87.31921899999999,1505150727.024348,1.5846345773121462,1.8145353059601876
912,87.321877,1505150727.0269911,1.5752700910133177,1.8034037243177554
913,87.324536,1505150727.0296378,1.5658786336111208,1.7923748717194548
914,87.32719499999999,1505150727.032347,1.5565560195777428,1.7814535435943861
915,87.329853,1505150727.035051,1.5473061232153251,1.7706433598828457
916,87.33251299999999,1505150727.0376399,1.5380721710963352,1.7599468057368328
917,87.335172,1505150727.040295,1.5286723690433721,1.7493652707493579
918,87.33783,1505150727.042934,1.5191473972289202,1.7388990884243092
919,87.34048899999999,1505150727.0456479,1.509594560241375,1.7285475772903414
920,87.343149,1505150727.0482938,1.5000409781957256,1.718309084076584
921,87.34567899999999,1505150727.050813,1.4905706936461147,1.7081810287947465
922,87.348338,1505150727.053472,1.4810843158414553,1.6981599519803028
923,87.35099699999999,1505150727.0561159,1.4715341610630848,1.6882415653094063
924,87.35365399999999,1505150727.058767,1.4617984868167928,1.6784208074151765
925,87.356314,1505150727.061402,1.4520498485594897,1.6686919063509191
926,87.35897399999999,1505150727.064102,1.4423378671609084,1.6590484490068829
927,87.361632,1505150727.0667698,1.432571198497486,1.649483456801233
928,87.364291,1505150727.06941,1.4229320837814858,1.6399894667958381
929,87.36695,1505150727.072136,1.4132069893602723,1.6305586178248048
930,87.36961,1505150727.074694,1.403364771805094,1.621182741624438
931,87.372269,1505150727.0773592,1.3934729333801825,1.611853458779155
932,87.374927,1505150727.080048,1.3836411466384617,1.6025622784530142
933,87.377586,1505150727.0827022,1.373834244837418,1.5933006999784023
934,87.380246,1505150727.085479,1.3642286577361022,1.5840603142270093
935,87.382904,1505150727.0881128,1.3545494588941014,1.574832903393294
936,87.38556299999999,1505150727.090673,1.3446544912251528,1.565610538658731
937,87.388222,1505150727.093301,1.33471884338372,1.5563856751726908
938,87.39088,1505150727.096149,1.324743856474391,1.547151242551089
939,87.39353899999999,1505150727.0987608,1.3148596176421414,1.537900727640505
940,87.396198,1505150727.101299,1.30511127740808,1.5286282459864702
941,87.398856,1505150727.104031,1.2954605397856558,1.519328599622617
942,87.401387,1505150727.106495,1.285758840188911,1.509997320707084
943,87.40404699999999,1505150727.1091552,1.2760169074545447,1.5006307020409733
944,87.406705,1505150727.111804,1.2663697461110202,1.4912258158641467
945,87.409365,1505150727.114541,1.2567656491259127,1.481780521798103
946,87.412024,1505150727.1172202,1.2473311273652987,1.4722934643559609
947,87.414682,1505150727.119829,1.237992569088493,1.4627640606556847
948,87.417341,1505150727.1224709,1.2287268774942683,1.453192479643101
949,87.420001,1505150727.125115,1.2193395924174544,1.443579614638594
950,87.422658,1505150727.1277819,1.2099824076880459,1.433927050785476
951,87.42531699999999,1505150727.130482,1.2007742345794579,1.4242370279534642
952,87.427977,1505150727.133127,1.1917593295430737,1.4145123986647488
953,87.430634,1505150727.135843,1.182862590722,1.4047565806622702
954,87.43329299999999,1505150727.1384,1.1739558681223314,1.3949735047823213
955,87.435951,1505150727.141073,1.1649622717477246,1.3851675596870054
956,87.438611,1505150727.143703,1.15596912240798,1.3753435347666376
957,87.44127,1505150727.1463602,1.147075214807702,1.365506561307289
958,87.443928,1505150727.149072,1.138287254469827,1.355662050950301
959,87.44658799999999,1505150727.151767,1.1296117979056715,1.3458156304859668
960,87.449247,1505150727.154369,1.1211059165660093,1.335973073065681
961,87.451905,1505150727.157027,1.1125565238330677,1.3261402272346272
962,87.454565,1505150727.15967,1.1039545299979765,1.3163229460085581
963,87.45709599999999,1505150727.1621969,1.09543151232192,1.3065270180756565
964,87.45975299999999,1505150727.164893,1.0870263628379322,1.2967581023049801
965,87.462412,1505150727.1676211,1.0787264155582437,1.2870216660078648
966,87.46507199999999,1505150727.170279,1.070579950248,1.277322927513275
967,87.46773,1505150727.172852,1.0623701549989077,1.2676668042880435
968,87.47039,1505150727.175482,1.0541120799846697,1.258057868216128
969,87.47305,1505150727.1782882,1.0458982614218153,1.2485003091631812
970,87.475708,1505150727.1808078,1.0378328584332979,1.238997906824476
971,87.47836699999999,1505150727.1835089,1.0299055892172806,1.2295540100532838
972,87.481027,1505150727.186181,1.0222128642924346,1.220171523126913
973,87.483684,1505150727.188791,1.0146108874446682,1.2108528994886778
974,87.48634299999999,1505150727.191436,1.0069251660660008,1.201600144511317
975,87.489003,1505150727.19412,0.9993741511925549,1.1924148288818115
976,87.491661,1505150727.1968782,0.9919164175937425,1.1832981131156362
977,87.49432,1505150727.1994722,0.9845148613759793,1.174250782271337
978,87.49698,1505150727.202102,0.9773372696243089,1.1652732890959436
979,87.49963799999999,1505150727.204826,0.9702030402542973,1.1563658037312208
980,87.502297,1505150727.2073731,0.9630106963521657,1.147528268320537
981,87.504955,1505150727.210072,0.9559049282017308,1.138760454835407
982,87.507615,1505150727.212786,0.9488313465613929,1.1300620239042094
983,87.51014699999999,1505150727.215342,0.9418504501492053,1.121432581782042
984,87.512805,1505150727.217933,0.9350361487290948,1.1128717325404924
985,87.515464,1505150727.22069,0.9283941047426525,1.104379123281741
986,87.518124,1505150727.22333,0.9217754555806789,1.095954481414328
987,87.520781,1505150727.225955,0.9151286432223703,1.087597644196211
988,87.52344099999999,1505150727.228586,0.9084863012126864,1.0793085811560341
989,87.526101,1505150727.23134,0.9019434989657104,1.071087409481625
990,87.528759,1505150727.233908,0.8955595431065287,1.0629344017533002
991,87.531418,1505150727.2366168,0.8893949323531944,1.0548499854434377
992,87.534078,1505150727.239202,0.8832431365992508,1.0468347346162412
993,87.53673599999999,1505150727.241817,0.8771002815425564,1.0388893555203795
994,87.539394,1505150727.244512,0.8710285050289932,1.0310146682680594
995,87.542054,1505150727.247172,0.8650477746157512,1.0232115862690672
996,87.54471199999999,1505150727.249829,0.8592434739615603,1.0154810942716408
997,87.547371,1505150727.252511,0.8535475047557058,1.0078242255835268
998,87.55003099999999,1505150727.255247,0.8479035406055176,1.0002420393740505
999,87.552689,1505150727.2577941,0.8422390128516563,0.9927355992974776
1000,87.555348,1505150727.260473,0.8366643391051495,0.9853059544431628
1001,87.55800699999999,1505150727.263155,0.8312055963996409,0.9779541228493736
1002,87.560664,1505150727.265847,0.8258460954335984,0.9706810771628407
1003,87.563324,1505150727.2684858,0.8206634712614698,0.9634877320054936
1004,87.565854,1505150727.271016,0.8155341932495948,0.9563749331085669
1005,87.568513,1505150727.273653,0.810405511284203,0.9493434487832135
1006,87.571173,1505150727.276285,0.80527295501667,0.942393964316074
1007,87.57383,1505150727.27894,0.800255584732031,0.935527079246972
1008,87.57648999999999,1505150727.2816682,0.7954049584510897,0.9287433066732219
1009,87.579149,1505150727.284384,0.79066176954876,0.9220430735083636
1010,87.581807,1505150727.286979,0.7860069445375767,0.9154267212196495
1011,87.58446599999999,1505150727.2895849,0.781334983189999,0.9088945073603157
1012,87.587126,1505150727.292227,0.7765564785335349,0.9024466084032031
1013,87.589784,1505150727.294894,0.7718845171859573,0.8960831237052512
1014,87.592443,1505150727.2976131,0.7673766176329028,0.8898040794053159
1015,87.595102,1505150727.300249,0.762931004937351,0.8836094306703282
1016,87.597759,1505150727.3029382,0.7586192046772959,0.8774990614281859
1017,87.60041799999999,1505150727.3055968,0.7543629857518068,0.871472781949516
1018,87.603078,1505150727.308249,0.750058487061172,0.8655303254555571
1019,87.605736,1505150727.310851,0.7457314876157932,0.8596713449368514
1020,87.608395,1505150727.313501,0.7415415788615691,0.8538954106757226
1021,87.611054,1505150727.316258,0.7375358484706789,0.8482020081777863
1022,87.613711,1505150727.3188338,0.7337201078963344,0.8425905361888084
1023,87.616371,1505150727.321534,0.7300152319678802,0.8370603054292629
1024,87.61903,1505150727.324168,0.7262748912736708,0.831610539829789
1025,87.62156,1505150727.326668,0.7225297822075952,0.8262403823196501
1026,87.624219,1505150727.329319,0.718859774998413,0.8209489062293546
1027,87.626877,1505150727.3320189,0.7153647074320738,0.815735131799934
1028,87.629536,1505150727.334742,0.7119986839293649,0.8105980462982944
1029,87.632196,1505150727.3373702,0.7087915068144505,0.8055366263659783
1030,87.63485399999999,1505150727.339948,0.7054943266805606,0.8005498619781743
1031,87.637513,1505150727.3425941,0.7021233857943645,0.7956367817620134
1032,87.64017199999999,1505150727.345293,0.6988357424042071,0.7907964788028882
1033,87.64282999999999,1505150727.347956,0.6955571887229197,0.786028134849934
1034,87.645489,1505150727.3506198,0.6923738534673365,0.7813310400999915
1035,87.64814899999999,1505150727.3532789,0.689291846113911,0.776704606098619
1036,87.650806,1505150727.355936,0.6861967257378534,0.7721483704146763
1037,87.653465,1505150727.358573,0.6830428947831926,0.7676619929185956
1038,87.656125,1505150727.361225,0.6799804079520946,0.7632452441609744
1039,87.658783,1505150727.3639,0.6769854233852282,0.7588979864636138
1040,87.661442,1505150727.366709,0.6741437717761858,0.7546201484731242
1041,87.664102,1505150727.369209,0.6714931530650349,0.7504116946040998
1042,87.66676,1505150727.371918,0.668902288013833,0.7462725918882198
1043,87.66942,1505150727.374578,0.6662205258739308,0.7422027776218113
1044,87.672079,1505150727.377192,0.663583169197033,0.7382021311331323
1045,87.67473799999999,1505150727.379821,0.661001542866322,0.7342704517599326
1046,87.677269,1505150727.382384,0.6585416590298211,0.7304074435127453
1047,87.67992699999999,1505150727.385105,0.6562218461168913,0.72661270596977
1048,87.682587,1505150727.387722,0.6540158780822681,0.7228857310032395
1049,87.68524599999999,1505150727.390344,0.6517130524941118,0.7192259054320248
1050,87.68790399999999,1505150727.393041,0.6493780403958583,0.7156325198073704
1051,87.690563,1505150727.3957472,0.647096821492721,0.7121047827824566
1052,87.69322199999999,1505150727.3984482,0.6448579218898965,0.7086418392935393
1053,87.69588,1505150727.401033,0.6428283836143246,0.7052427900938703
1054,87.698539,1505150727.40372,0.6409112001008511,0.7019067106127584
1055,87.70119799999999,1505150727.4062872,0.6390180074583296,0.6986326683555782
1056,87.703857,1505150727.4089658,0.6371432922567899,0.6954197392511656
1057,87.706516,1505150727.411602,0.6353558978650509,0.692267023724028
1058,87.709176,1505150727.414279,0.6336364527724059,0.689173662830604
1059,87.711834,1505150727.416935,0.6320761520907969,0.6861388542503645
1060,87.71449299999999,1505150727.419611,0.6307559091303294,0.6831618678527692
1061,87.717153,1505150727.422317,0.6294440108206278,0.6802420610390463
1062,87.71981,1505150727.424907,0.6281276421623017,0.6773788946473379
1063,87.72246899999999,1505150727.427595,0.6268361584446525,0.6745719501633249
1064,87.725129,1505150727.430241,0.6256768480346708,0.6718209480195009
1065,87.727786,1505150727.432988,0.6246573105250186,0.6691257656391137
1066,87.730445,1505150727.435621,0.6238492205053103,0.6664864535671909
1067,87.73297699999999,1505150727.438118,0.6230901553088519,0.6639032486915979
1068,87.735635,1505150727.4407308,0.6222744656964818,0.6613765844828654
1069,87.738294,1505150727.4433699,0.6215669585208272,0.6589070984754263
1070,87.74095299999999,1505150727.4460459,0.6209628654100219,0.6564956366507385
1071,87.743612,1505150727.448981,0.6206015122295327,0.6541432537380797
1072,87.746271,1505150727.4514718,0.6205401194417548,0.6518512086762317
1073,87.74892899999999,1505150727.454071,0.620788670825283,0.6496209557660159
1074,87.751589,1505150727.4566941,0.6212018800498176,0.6474541337959401
1075,87.75424799999999,1505150727.459339,0.6218164039740803,0.645352556703356
1076,87.756906,1505150727.462007,0.6229196860146335,0.6433182094719317
1077,87.759565,1505150727.464673,0.6247613206363511,0.6413532523743193
1078,87.76222399999999,1505150727.467351,0.627681352357945,0.6394600367958817
1079,87.764882,1505150727.470041,0.6321360547623667,0.6376411379321905
1080,87.767541,1505150727.472651,0.6382875524930687,0.6358994136376848
1081,87.770201,1505150727.475303,0.6464347628614165,0.6342381035327995
1082,87.772858,1505150727.4779708,0.6569826994527995,0.6326609865650487
1083,87.775517,1505150727.480629,0.6700030368568323,0.6311726172619888
1084,87.778177,1505150727.4833338,0.6856933644827226,0.6297786603757339
1085,87.780835,1505150727.485964,0.7041271450595347,0.6284863403107669
1086,87.78349399999999,1505150727.488729,0.7252131834753265,0.6273050154850749
1087,87.786153,1505150727.491253,0.7486892192774546,0.6262468787093681
1088,87.78868299999999,1505150727.493793,0.7746249899044627,0.6253277731864315
1089,87.791342,1505150727.496423,0.8029628278590935,0.624568100732053
1090,87.79401399999999,1505150727.499143,0.833586504077107,0.6239937861446969
1091,87.796673,1505150727.501793,0.8664104858881525,0.6236372514377819
1092,87.799331,1505150727.504469,0.9011176765631245,0.6235383470023731
1093,87.801991,1505150727.507083,0.9374073706512076,0.6237451835332215
1094,87.804649,1505150727.509729,0.9750243112459368,0.6243148080300147
1095,87.80730799999999,1505150727.512419,1.0139075525943966,0.625313668927901
1096,87.809967,1505150727.5151622,1.0538942249950305,0.6268178197532411
1097,87.812625,1505150727.517778,1.0947959777591216,0.6289128184497892
1098,87.81528399999999,1505150727.5204182,1.1364652893820577,0.6316932908625263
1099,87.817942,1505150727.523031,1.1785488533108743,0.6352621408397977
1100,87.820602,1505150727.525706,1.2208060157779466,0.6397294044309467
1101,87.823261,1505150727.528364,1.2631372370205662,0.6452107602510861
1102,87.825918,1505150727.531029,1.3054078105335123,0.6518257214937835
1103,87.828578,1505150727.533749,1.3474833278348046,0.6596955473722034
1104,87.83123599999999,1505150727.5363631,1.3892438345696827,0.6689409231830912
1105,87.833894,1505150727.538982,1.4304088908677632,0.6796794683290777
1106,87.83655499999999,1505150727.541665,1.4706853908708926,0.6920231395446077
1107,87.839086,1505150727.544178,1.509958446619418,0.706075601227355
1108,87.84174399999999,1505150727.546849,1.548123749978766,0.7219296357387869
1109,87.844404,1505150727.5495622,1.5851109674639086,0.7396646643955651
1110,87.84706299999999,1505150727.552177,1.620893873029582,0.7593444458201367
1111,87.849721,1505150727.5548391,1.6554513070256296,0.7810150132300469
1112,87.85238,1505150727.557513,1.6886677854459158,0.8047029063512642
1113,87.85503899999999,1505150727.560128,1.7205997836947313,0.8304137467612452
1114,87.857698,1505150727.562777,1.7511498481720595,0.85813119733847
1115,87.860357,1505150727.565488,1.780558930668767,0.8878163371181883
1116,87.863017,1505150727.56813,1.8087580388044142,0.919407472667054
1117,87.865675,1505150727.5707982,1.8357531330438335,0.9528203966676675
1118,87.86833399999999,1505150727.573427,1.861547789665925,0.9879490939120295
1119,87.870993,1505150727.576076,1.8859733275159196,1.0246668840273816
1120,87.87365,1505150727.578736,1.9092113917595979,1.062827978794604
1121,87.87630899999999,1505150727.581418,1.931337531288715,1.102269420311499
1122,87.878969,1505150727.584075,1.9524347455760684,1.142813355613142
1123,87.881627,1505150727.586777,1.972666351358077,1.184269594875236
1124,87.88428499999999,1505150727.589393,1.9917596573686396,1.2264383944195476
1125,87.886943,1505150727.592093,2.009635091402238,1.2691134017947292
1126,87.889603,1505150727.594702,2.026566834841182,1.3120846971514717
1127,87.892262,1505150727.597366,2.0426131512292116,1.3551418627366427
1128,87.894792,1505150727.599963,2.057742152079472,1.3980770117688703
1129,87.897452,1505150727.6025941,2.072041605236626,1.4406877103354028
1130,87.900111,1505150727.605251,2.0854685953538774,1.482779730907488
1131,87.90276999999999,1505150727.607869,2.097927904005522,1.5241695824944488
1132,87.90543,1505150727.6105862,2.109665400365913,1.5646867696073619
1133,87.90808899999999,1505150727.613197,2.120571560893748,1.6041757399242778
1134,87.910747,1505150727.615859,2.1306901950055477,1.6424974890482675
1135,87.913406,1505150727.6185322,2.140221574319695,1.6795308000949116
1136,87.916066,1505150727.621284,2.1490107267505363,1.715173105720503
1137,87.918725,1505150727.623806,2.1569537911983603,1.7493409701457803
1138,87.92138299999999,1505150727.6264992,2.164082954173264,1.7819701980402824
1139,87.924043,1505150727.629168,2.1705549759003504,1.8130155850653824
1140,87.926701,1505150727.631807,2.1763542101594333,1.842450331554456
1141,87.92936,1505150727.63447,2.1815579939817185,1.8702651470935472
1142,87.93202,1505150727.637138,2.186211030853452,1.8964670799987167
1143,87.934679,1505150727.6397939,2.1900260263696927,1.9210781113036755
1144,87.937338,1505150727.642454,2.193170469592242,1.9441335569596176
1145,87.93999699999999,1505150727.645088,2.1956787822055093,1.965680323886694
1146,87.942655,1505150727.6477911,2.197574359033964,1.985775065582754
1147,87.945314,1505150727.650484,2.1989200829815916,2.0044822821646218
1148,87.94797299999999,1505150727.653096,2.199797016370119,2.021872408587747
1149,87.950503,1505150727.6556742,2.200057339671692,2.038019933225934
1150,87.95316199999999,1505150727.658268,2.199476045338872,2.053001586501644
1151,87.955821,1505150727.660953,2.1983475803344,2.0668946352045583
1152,87.95848,1505150727.663598,2.196510416061307,2.0797753123849314
1153,87.96114,1505150727.66634,2.194116246349588,2.0917174062232426
1154,87.963798,1505150727.668907,2.191250156834731,2.1027910252993167
1155,87.966458,1505150727.6716769,2.1876220218909994,2.113061552614576
1156,87.969117,1505150727.674207,2.1834033538939566,2.1225887961349366
1157,87.971775,1505150727.676846,2.178558837089469,2.1314263388758667
1158,87.974434,1505150727.679575,2.173123787231671,2.1396210865384337
1159,87.977093,1505150727.6822,2.1672189037334264,2.147213006052337
1160,87.979751,1505150727.684907,2.1608146822938132,2.154235044699875
1161,87.98241,1505150727.687521,2.1539765390143715,2.1607132168709833
1162,87.985069,1505150727.6901681,2.1465681282620506,2.1666668436269427
1163,87.98772699999999,1505150727.6928241,2.1386021160246202,2.1721089286045117
1164,87.990386,1505150727.695484,2.1302312392134213,2.1770466519666485
1165,87.99304599999999,1505150727.698171,2.1214265895740145,2.181481962289556
1166,87.99570399999999,1505150727.700832,2.112328238029971,2.1854122451685347
1167,87.998363,1505150727.703535,2.102922773535417,2.1888310473940855
1168,88.00102199999999,1505150727.7062101,2.0931155737111315,2.1917288365837706
1169,88.003552,1505150727.708618,2.0828827966977834,2.1940937774927183
1170,88.006211,1505150727.7113101,2.0724026603938737,2.1959125072434116
1171,88.00886899999999,1505150727.713971,2.061666075090532,2.1971708924244076
1172,88.011528,1505150727.7167082,2.050759020492972,2.1978547521066596
1173,88.01418699999999,1505150727.7193,2.0397190475296405,2.197950532838193
1174,88.01684499999999,1505150727.721984,2.0284217314971524,2.197445924361366
1175,88.019504,1505150727.724621,2.016991944133755,2.19633040749372
1176,88.02216299999999,1505150727.7272692,2.0052508714944643,2.194595727792935
1177,88.02481999999999,1505150727.729915,1.9935159083316272,2.1922362901968238
1178,88.02748,1505150727.732673,1.9816983927308556,2.189249471207688
1179,88.03013899999999,1505150727.7352839,1.969870893351489,2.185635846978074
1180,88.032797,1505150727.73798,1.9580672358314535,2.181399338024675
1181,88.035456,1505150727.740591,1.9460965362844787,2.1765472737611864
1182,88.038116,1505150727.743197,1.934066083077555,2.1710903818952154
1183,88.040774,1505150727.7458482,1.9221163941691157,2.1650427086451933
1184,88.043433,1505150727.748746,1.9101337736924753,2.1584214760697282
1185,88.046092,1505150727.7513468,1.898347252508834,2.151246883309671
1186,88.04875,1505150727.7538571,1.886618845857313,2.143541859519733
1187,88.05140899999999,1505150727.756505,1.8748896941476878,2.135331777360964
1188,88.05407,1505150727.759159,1.8631401278460102,2.126644136531538
1189,88.05672799999999,1505150727.7618291,1.8515732497914583,2.1175082264959224
1190,88.059258,1505150727.7643468,1.8401304984170495,2.1079547766143625
1191,88.061916,1505150727.767075,1.8289020257533803,2.098015601138329
1192,88.06457499999999,1505150727.7702222,1.8179021369160495,2.087723246446863
1193,88.067234,1505150727.7724538,1.8069234077288752,2.0771106480510597
1194,88.069892,1505150727.775043,1.795963603017545,2.066210804562391
1195,88.072552,1505150727.777664,1.785099761790023,2.0550564744704976
1196,88.075211,1505150727.780343,1.7744519874126903,2.043679899405275
1197,88.07786899999999,1505150727.782975,1.7640268363968632,2.0321125556099293
1198,88.080529,1505150727.78564,1.7538781019376577,2.020384934548188
1199,88.08318799999999,1505150727.788349,1.743930086131697,2.008526353808556
1200,88.08584499999999,1505150727.790944,1.733934386607074,1.9965647998639338
1201,88.088505,1505150727.7936,1.72401662016014,1.9845268038260357
1202,88.09116399999999,1505150727.796264,1.7142541238221003,1.9724373497306429
1203,88.09382099999999,1505150727.7989278,1.7046708884639077,1.9603198128442305
1204,88.096481,1505150727.801667,1.6952371117613978,1.9481959242541877
1205,88.099141,1505150727.804279,1.686011355281553,1.9360857580256579
1206,88.101799,1505150727.8068721,1.6767458126989492,1.9240077378526166
1207,88.104458,1505150727.809576,1.667444954362211,1.9119786605364157
1208,88.107117,1505150727.8121998,1.6582659875313037,1.900013733294505
1209,88.109775,1505150727.814881,1.6491835802306878,1.8881266211096328
1210,88.11243499999999,1505150727.817607,1.6402419889117472,1.876329500025756
1211,88.114966,1505150727.8200908,1.6313957650301316,1.8646331130536686
1212,88.11762399999999,1505150727.8227148,1.6224860621980466,1.8530468267023306
1213,88.120283,1505150727.8253708,1.6134935089047855,1.8415786871702442
1214,88.122941,1505150727.828056,1.6044602754390405,1.830235475341086
1215,88.12560099999999,1505150727.830687,1.5954872426681068,1.8190227591618437
1216,88.12826,1505150727.833452,1.586550717744274,1.8079449416315667
1217,88.130917,1505150727.836017,1.5777007685721378,1.7970053031953463
1218,88.133577,1505150727.838702,1.5686754327222963,1.786206038633986
1219,88.136236,1505150727.841336,1.5595299935060736,1.7755482896751733
1220,88.138894,1505150727.844005,1.5503581792329657,1.7650321747571007
1221,88.141554,1505150727.846635,1.5410938287433285,1.754656816795231
1222,88.144213,1505150727.84934,1.531819643486717,1.7444203693182498
1223,88.14686999999999,1505150727.851993,1.5225386036955477,1.734320041509168
1224,88.14953,1505150727.854653,1.5132973500071376,1.7243521233647685
1225,88.15218999999999,1505150727.857298,1.5038488211541665,1.7145120129838363
1226,88.154848,1505150727.859948,1.4943198260259525,1.704794248433828
1227,88.157506,1505150727.8625789,1.4847695222359611,1.6951925463023296
1228,88.16016499999999,1505150727.865342,1.475313542801949,1.6856998481794185
1229,88.162823,1505150727.8680289,1.4658039191844414,1.676308375815336
1230,88.165482,1505150727.870625,1.4562916133577593,1.6670096958926546
1231,88.168015,1505150727.873106,1.4466530946882423,1.657794795595094
1232,88.170672,1505150727.875817,1.4369215927673336,1.648654169711938
1233,88.17333099999999,1505150727.878423,1.427075500910014,1.6395779188328825
1234,88.175991,1505150727.8810859,1.4172809670734983,1.6305558567680332
1235,88.178649,1505150727.8837812,1.407534862013749,1.6215776243594286
1236,88.181308,1505150727.886425,1.3980307518262118,1.6126328068697282
1237,88.183967,1505150727.889089,1.388413690830093,1.603711053138988
1238,88.18662499999999,1505150727.8917062,1.378646724143429,1.5948021958945
1239,88.189284,1505150727.894371,1.3689272921638067,1.585896372793274
1240,88.191942,1505150727.8970602,1.3592102443701175,1.5769841466572383
1241,88.19460099999999,1505150727.899724,1.3496067434314933,1.5680566220445178
1242,88.197261,1505150727.902383,1.3401003980696438,1.5591055549868538
1243,88.199918,1505150727.905067,1.33072950427112,1.550123453456585
1244,88.20257699999999,1505150727.907667,1.3211203408909047,1.5411036671661436
1245,88.205236,1505150727.910322,1.3114669210593057,1.5320404657671693
1246,88.207894,1505150727.912971,1.301872956864414,1.5229291038972537
1247,88.21055299999999,1505150727.915812,1.2923079009239615,1.5137658704275345
1248,88.213213,1505150727.91837,1.2829399873578542,1.5045481190205854
1249,88.21587199999999,1505150727.921008,1.273687855821124,1.4952742782681123
1250,88.218531,1505150727.9236228,1.2643291809755075,1.4859438415902568
1251,88.22119099999999,1505150727.92628,1.2549180540393623,1.4765573385975699
1252,88.223722,1505150727.92882,1.2455660847166827,1.4671162899121717
1253,88.22638099999999,1505150727.931485,1.2362169466147988,1.4576231467702072
1254,88.229041,1505150727.934242,1.2270122007734896,1.4480812162052168
1255,88.23169899999999,1505150727.936908,1.2180600296294706,1.4384945729920375
1256,88.234357,1505150727.9394891,1.2091208224964631,1.4288679607254398
1257,88.237017,1505150727.9420989,1.2000838637401976,1.4192066857633745
1258,88.23967499999999,1505150727.944833,1.1910939926561113,1.4095165082619394
1259,88.242334,1505150727.9475179,1.1821373511634679,1.399803533652965
1260,88.24499399999999,1505150727.950166,1.1733072205369008,1.3900741064651096
1261,88.24765099999999,1505150727.952797,1.164660076180701,1.3803347075959127
1262,88.25031,1505150727.95544,1.1560573372875056,1.3705918563594206
1263,88.25296999999999,1505150727.958048,1.1473771123514838,1.3608520192590394
1264,88.25562699999999,1505150727.960712,1.1387851022949875,1.3511215275517046
1265,88.258287,1505150727.963426,1.1302121657259563,1.3414065048886852
1266,88.260944,1505150727.966096,1.1217477096168822,1.331712805219653
1267,88.263604,1505150727.968698,1.113424218501104,1.3220459605553292
1268,88.266263,1505150727.9713888,1.1052182975541531,1.312411138311942
1269,88.26892099999999,1505150727.974015,1.0969344435295132,1.3028131084471268
1270,88.27158,1505150727.9766662,1.0886336021800995,1.2932562208060994
1271,88.274239,1505150727.979326,1.0804454136160262,1.283744392540973
1272,88.27677,1505150727.981921,1.0724279923694129,1.274281104494525
1273,88.27942999999999,1505150727.984519,1.064629171170543,1.2648694050743035
1274,88.282089,1505150727.987214,1.0569470260707752,1.255511920873586
1275,88.284747,1505150727.98982,1.049230459286598,1.2462108744641263
1276,88.28740599999999,1505150727.992481,1.041525366397224,1.236968110247586
1277,88.290066,1505150727.995163,1.0338658710638209,1.2277851284563885
1278,88.29272399999999,1505150727.997826,1.0263029352607091,1.2186631258953409
1279,88.295383,1505150728.000483,1.018930287297385,1.2096030409226444
1280,88.29804299999999,1505150728.003165,1.0116893656068662,1.200605600137517
1281,88.30069999999999,1505150728.0058,1.0044724347872993,1.191671365063107
1282,88.303359,1505150728.008456,0.9972006676912706,1.1828007779734622
1283,88.30601899999999,1505150728.0111208,0.9899998301267523,1.173994206120705
1284,88.30867599999999,1505150728.013783,0.9828156818637658,1.1652519829518992
1285,88.311335,1505150728.016458,0.9758413419628943,1.156574444261856
1286,88.31399499999999,1505150728.019104,0.9690957348999819,1.1479619574188107
1287,88.316653,1505150728.021767,0.9623997487068027,1.139414942981108
1288,88.319312,1505150728.024419,0.9556753012940468,1.1309338895498646
1289,88.321972,1505150728.027064,0.9490343003889501,1.1225193634918014
1290,88.32463,1505150728.0297039,0.942463334945639,1.1141720147472485
1291,88.327289,1505150728.032458,0.9360583684479218,1.1058925790367828
1292,88.329818,1505150728.034933,0.9298046487453371,1.0976818764060015
1293,88.332477,1505150728.037641,0.9236802711296244,1.0895408064455723
1294,88.33513699999999,1505150728.040245,0.9175399492704838,1.0814703412048448
1295,88.337795,1505150728.042887,0.9113154358455798,1.0734715170596894
1296,88.340454,1505150728.045574,0.9052472356109164,1.0655454261589268
1297,88.343114,1505150728.0482821,0.8992396831059267,1.0576932069372234
1298,88.345771,1505150728.050925,0.8933909769887315,1.0499160325452497
1299,88.34843,1505150728.053539,0.8877160184214126,1.0422150964562507
1300,88.35109,1505150728.056204,0.8820613254345253,1.034591595564398
1301,88.353747,1505150728.0588439,0.8764136359938166,1.0270467120085534
1302,88.35640599999999,1505150728.061495,0.8708473068980758,1.0195815951373621
1303,88.359066,1505150728.064296,0.8653805175650429,1.0121973444671526
1304,88.361724,1505150728.066879,0.8600508189231646,1.0048949938277827
1305,88.36438299999999,1505150728.069491,0.8548737081810062,0.9976754967765408
1306,88.367042,1505150728.072163,0.8497269958094952,0.990539713764439
1307,88.3697,1505150728.07484,0.844519933731552,0.9834884019176933
1308,88.372359,1505150728.077455,0.8393471443263975,0.9765222080602463
1309,88.37501999999999,1505150728.0800982,0.834253033057036,0.969641664679744
1310,88.37767699999999,1505150728.082788,0.8292206125986942,0.9628471876006173
1311,88.380336,1505150728.0854511,0.8244000866651586,0.9561390739332607
1312,88.38286699999999,1505150728.088029,0.8196822297383684,0.9495174995423165
1313,88.385525,1505150728.090623,0.8148998507797629,0.9429825163522476
1314,88.388185,1505150728.093314,0.8101109153098414,0.9365340505144477
1315,88.39084299999999,1505150728.095937,0.8053976777432965,0.9301719022001147
1316,88.393502,1505150728.098669,0.8008173585425233,0.9238957468757397
1317,88.39616199999999,1505150728.1013288,0.7964632389821552,0.9177051374188112
1318,88.39882,1505150728.103921,0.792259323135574,0.9115995069604981
1319,88.401479,1505150728.106612,0.7880598776376174,0.9055781734909888
1320,88.404139,1505150728.109256,0.7838102152234444,0.8996403480075909
1321,88.406796,1505150728.1118789,0.7797027098955339,0.8937851475489623
1322,88.409455,1505150728.114611,0.7756941482838481,0.8880116131241397
1323,88.412116,1505150728.117234,0.7718439860250942,0.8823187314470641
1324,88.414773,1505150728.1199858,0.7682027380587303,0.8767054592703376
1325,88.417433,1505150728.122625,0.7645412245119347,0.8711707497093955
1326,88.420092,1505150728.125184,0.7608287489908188,0.8657135804586187
1327,88.42275,1505150728.127852,0.7572135780580984,0.8603329835247885
1328,88.425409,1505150728.130487,0.753625825263609,0.8550280750691457
1329,88.428069,1505150728.133201,0.7501745671137909,0.849798083030889
1330,88.43072699999999,1505150728.135828,0.7468605486667483,0.8446423701734287
1331,88.433386,1505150728.138593,0.743591084694331,0.8395604509961548
1332,88.43591699999999,1505150728.141047,0.740264102236277,0.8345520019851999
1333,88.438576,1505150728.143662,0.7370271227971985,0.8296168652643606
1334,88.44123499999999,1505150728.146382,0.7338852127722032,0.8247550456458108
1335,88.443893,1505150728.149163,0.7308274943129714,0.8199667009128025
1336,88.446552,1505150728.151741,0.7279414372409246,0.8152521255081473
1337,88.449212,1505150728.154476,0.7251045540037485,0.8106117286074981
1338,88.45187,1505150728.157002,0.7222670747200891,0.8060460083238725
1339,88.454529,1505150728.159646,0.7193501722425325,0.8015555240018598
1340,88.457189,1505150728.162287,0.7164416144157418,0.79714086794531
1341,88.459847,1505150728.164968,0.7136543520482989,0.7928026368012993
1342,88.46250599999999,1505150728.1676428,0.7110247439756837,0.7885414020756171
1343,88.465166,1505150728.170353,0.7085076396767879,0.7843576795721223
1344,88.467823,1505150728.1729548,0.7059503022402706,0.7802518986884053
1345,88.47048199999999,1505150728.175591,0.7033372344575665,0.7762243734235126
1346,88.473142,1505150728.178242,0.7007730424864913,0.7722752768095811
1347,88.47579999999999,1505150728.180902,0.6983133076616113,0.7684046194786321
1348,88.478459,1505150728.183607,0.6959580299829262,0.7646122322426059
1349,88.48111899999999,1505150728.186242,0.693769496307939,0.7608977526114805
1350,88.483778,1505150728.1890078,0.6916237289681273,0.7572606158927461
1351,88.48630999999999,1505150728.191395,0.6893724614007748,0.7537000521598834
1352,88.488969,1505150728.194062,0.6871223859263889,0.7502150902313628
1353,88.491627,1505150728.196713,0.6849329581816768,0.7468045686937017
1354,88.494286,1505150728.199548,0.6828587164198587,0.7434671526585904
1355,88.496943,1505150728.202126,0.681017975867866,0.7402013544234785
1356,88.499603,1505150728.204761,0.6792642581024324,0.7370055568644736
1357,88.502262,1505150728.2073479,0.6774045930745956,0.7338780395979186
1358,88.50492,1505150728.210027,0.6755751774057852,0.7308170085711156
1359,88.50757999999999,1505150728.212659,0.6738363608024336,0.727820629133864
1360,88.510238,1505150728.2154481,0.672222713960571,0.7248870614301389
1361,88.512896,1505150728.2180202,0.6708534461768535,0.7220144963855246
1362,88.51555499999999,1505150728.220692,0.6696555417570794,0.7192011911517278
1363,88.518214,1505150728.2233338,0.6685251396015369,0.7164455040864827
1364,88.520872,1505150728.225996,0.6674795250582412,0.713745930272423
1365,88.52353099999999,1505150728.2287161,0.6666154066691045,0.7111011385658239
1366,88.526191,1505150728.231315,0.6660433510567755,0.7085100104387283
1367,88.528849,1505150728.233983,0.6658210257185116,0.7059716803732395
1368,88.531508,1505150728.2366312,0.6661904255265251,0.703485578005428
1369,88.534167,1505150728.23929,0.6672260562912259,0.7010514736339091
1370,88.536824,1505150728.241958,0.6691176098059183,0.6986695307705334
1371,88.539484,1505150728.24459,0.6724580033098462,0.696340371784498
1372,88.542017,1505150728.247187,0.6775960730073496,0.694065165409865
1373,88.544674,1505150728.2498791,0.6848532369645379,0.6918457483996845
1374,88.547333,1505150728.252445,0.6945050176683079,0.689684797813926
1375,88.549993,1505150728.255137,0.7065715316874702,0.6875860738927465
1376,88.55265,1505150728.257789,0.7209617329217036,0.6855547541618554
1377,88.55530999999999,1505150728.260418,0.7378645681062084,0.6835978758811757
1378,88.557969,1505150728.2630742,0.7572935972984789,0.6817248960485841
1379,88.560627,1505150728.2657459,0.7792857753804788,0.6799483673652418
1380,88.56328599999999,1505150728.2684999,0.8037506522983702,0.6782847170014419
1381,88.565945,1505150728.271081,0.830510755211756,0.676755104100125
1382,88.568604,1505150728.2737122,0.8593187248300745,0.6753863221311259
1383,88.571264,1505150728.276351,0.8899885946505424,0.6742117035106132
1384,88.573922,1505150728.2790458,0.9223972810743619,0.6732719766586982
1385,88.57658099999999,1505150728.281706,0.9564698312562604,0.6726160207913388
1386,88.57924,1505150728.284394,0.9919798965442119,0.672301462413663
1387,88.58189899999999,1505150728.2870479,1.02868652514735,0.6723950603341193
1388,88.584558,1505150728.2896729,1.0663538316699166,0.6729728325886246
1389,88.587217,1505150728.2923331,1.104602432525303,0.6741198877635876
1390,88.58987499999999,1505150728.29498,1.1434642162003645,0.6759299337633626
1391,88.592534,1505150728.297704,1.1826854159048448,0.6785044486560754
1392,88.595066,1505150728.3004422,1.222195996176958,0.6819515109929354
1393,88.597724,1505150728.302915,1.2617548562142167,0.6863843009198597
1394,88.600383,1505150728.3056698,1.3012092591052806,0.6919192977062318
1395,88.603043,1505150728.308244,1.340265204922271,0.698674212719813
1396,88.6057,1505150728.310886,1.3788355218670083,0.7067657082387029
1397,88.60835999999999,1505150728.313545,1.4167519758195863,0.7163069611924624
1398,88.61102,1505150728.316225,1.4539792510258704,0.7274051369788629
1399,88.613677,1505150728.318814,1.4904379242919639,0.7401588423221229
1400,88.61633599999999,1505150728.321525,1.5258187965046641,0.7546556280108377
1401,88.618996,1505150728.324161,1.5599850749960587,0.7709696120211609
1402,88.621653,1505150728.326828,1.592772548960003,0.7891592903371485
1403,88.624313,1505150728.32949,1.6242691352527818,0.809265596519917
1404,88.62697299999999,1505150728.332177,1.6545876356713554,0.8313102626700278
1405,88.62962999999999,1505150728.334835,1.683881532185169,0.8552945255041823
1406,88.63229,1505150728.337478,1.711933863874308,0.8811982130111348
1407,88.634948,1505150728.340118,1.7387836717834277,0.9089792393831527
1408,88.637608,1505150728.34274,1.764280752198741,0.9385735273412308
1409,88.640266,1505150728.345451,1.78862895301753,0.9698953665870362
1410,88.642924,1505150728.348106,1.8117665834287753,1.0028382052927867
1411,88.645583,1505150728.3507829,1.8338162799964117,1.0372758595777365
1412,88.648242,1505150728.35342,1.8548716220183148,1.0730641149175422
1413,88.65077199999999,1505150728.356025,1.8748309835690846,1.110042683827493
1414,88.653431,1505150728.358634,1.8935793276774482,1.1480374758578336
1415,88.65608999999999,1505150728.361333,1.91128637857952,1.186863128509684
1416,88.65874699999999,1505150728.363936,1.9280840115597255,1.2263257409805564
1417,88.661406,1505150728.366569,1.9439585175489495,1.2662257474740775
1418,88.66406599999999,1505150728.3692632,1.9590548848542502,1.306360864222038
1419,88.666724,1505150728.371878,1.973233489586919,1.3465290444902231
1420,88.669383,1505150728.374572,1.9864669136087247,1.3865313778753283
1421,88.672043,1505150728.377229,1.9987956880805307,1.4261748732519255
1422,88.674701,1505150728.379877,2.010330528636606,1.4652750684278735
1423,88.67736,1505150728.382627,2.021121354169926,1.5036584143140892
1424,88.680021,1505150728.385241,2.031250121071942,1.5411643878902799
1425,88.682678,1505150728.387829,2.040740075155501,1.5776472965766908
1426,88.68533699999999,1505150728.39045,2.04937440451231,1.612977746154645
1427,88.687997,1505150728.393114,2.0572067533258647,1.6470437540259273
1428,88.69065499999999,1505150728.3958359,2.064402077460413,1.6797514984282993
1429,88.693314,1505150728.3985019,2.07096320813675,1.7110257022263855
1430,88.69597399999999,1505150728.401196,2.0769171164582443,1.740809657886733
1431,88.69863099999999,1505150728.40379,2.0822773624823907,1.7690649085975667
1432,88.70129,1505150728.406486,2.0868514231950894,1.7957706085439484
1433,88.703948,1505150728.4091341,2.0907413715566023,1.8209225920966288
1434,88.706479,1505150728.411703,2.093973284600573,1.8445321865883628
1435,88.709139,1505150728.414313,2.0966589210426165,1.8666248067205606
1436,88.71179699999999,1505150728.416973,2.098730182572018,1.8872383712478056
1437,88.714456,1505150728.419693,2.1003935992952347,1.906421584853665
1438,88.71711599999999,1505150728.422303,2.1014334023853185,1.9242321298136382
1439,88.719774,1505150728.424957,2.101601189470362,1.9407348125448984
1440,88.722433,1505150728.427689,2.101206755710051,1.9559997087279903
1441,88.72509199999999,1505150728.4302762,2.100180959712324,1.9701003471109937
1442,88.727749,1505150728.432944,2.0986793696093184,1.9831119674158313
1443,88.730408,1505150728.435649,2.096699154180238,1.9951098834360612
1444,88.733068,1505150728.4382248,2.0940409358764254,2.0061679787827815
1445,88.735726,1505150728.4409359,2.090690409582282,2.0163573589477433
1446,88.738385,1505150728.4435809,2.0867536715718313,2.0257451784734957
1447,88.741045,1505150728.4462368,2.0822551597508885,2.034393656058171
1448,88.743703,1505150728.448887,2.0772658036509637,2.0423592844239766
1449,88.746363,1505150728.451581,2.071840439548519,2.049692236754313
1450,88.749023,1505150728.4542248,2.0660033563377476,2.0564359676168094
1451,88.75168099999999,1505150728.456938,2.0596261060015024,2.0626270031163907
1452,88.75434,1505150728.459507,2.0526520641238726,2.0682949119573997
1453,88.75699999999999,1505150728.462174,2.045236649825373,2.0734624456071606
1454,88.75953,1505150728.4647129,2.0373373947940703,2.0781458319279085
1455,88.76218899999999,1505150728.4673972,2.02918794925141,2.082355203330867
1456,88.76484699999999,1505150728.470057,2.0208120060451034,2.0860951385967383
1457,88.767506,1505150728.4726589,2.012031049253407,2.089365297190118
1458,88.77016499999999,1505150728.47535,2.0029246510818393,2.0921611255014616
1459,88.772823,1505150728.478004,1.9935638900735313,2.0944746149470896
1460,88.775482,1505150728.4808488,1.9839392294847507,2.0962950918837633
1461,88.778142,1505150728.483306,1.9740947767552601,2.0976100194198235
1462,88.780799,1505150728.485991,1.9642302074569586,2.098405792007955
1463,88.783459,1505150728.488759,1.9541878672950188,2.0986685052943246
1464,88.786119,1505150728.491301,1.9438200857532075,2.098384685862999
1465,88.788777,1505150728.493954,1.9333170016596914,2.0975419676118507
1466,88.79143599999999,1505150728.4966788,1.9227979733227476,2.0961297029681005
1467,88.794102,1505150728.499299,1.9122677691142422,2.094139498511385
1468,88.79676599999999,1505150728.501965,1.9017494858354023,2.0915656668292426
1469,88.799425,1505150728.504642,1.8912690515082509,2.0884055896204896
1470,88.80208499999999,1505150728.507246,1.88073601607895,2.0846599903115517
1471,88.804743,1505150728.509931,1.8701538068147783,2.0803331170229744
1472,88.80727499999999,1505150728.5124469,1.8595549082490748,2.0754328383847747
1473,88.809933,1505150728.51507,1.849019190610599,2.0699706556564164
1474,88.81259299999999,1505150728.517761,1.8386044704082292,2.0639616354347767
1475,88.81525099999999,1505150728.520392,1.828356047174695,2.057424268487825
1476,88.817909,1505150728.523066,1.818173636089184,2.050380261992989
1477,88.82056899999999,1505150728.525814,1.8079617207027507,2.0428542741546014
1478,88.823228,1505150728.5283608,1.7978997110068626,2.0348736010893207
1479,88.825886,1505150728.5310998,1.787912803167868,2.0264678257914963
1480,88.82854499999999,1505150728.5337532,1.7781379388653002,2.017668438516591
1481,88.831205,1505150728.536405,1.7686585646068194,2.00850843777497
1482,88.833863,1505150728.5389912,1.7592726206345928,1.9990219214792435
1483,88.836522,1505150728.5416949,1.7500127404935801,1.9892436781971847
1484,88.839182,1505150728.544356,1.7408857787183392,1.9792087881907519
1485,88.84183999999999,1505150728.5470269,1.731796218859924,1.9689522426043597
1486,88.844499,1505150728.549678,1.7229772641049186,1.9585085872243306
1487,88.84715899999999,1505150728.55235,1.7144514152080663,1.9479115954573905
1488,88.849817,1505150728.5550342,1.7060391131662793,1.937193974158562
1489,88.852475,1505150728.5576808,1.6976923762376532,1.9263871055718844
1490,88.85513499999999,1505150728.5603049,1.6893761866912953,1.915520828020078
1491,88.857793,1505150728.5629592,1.6812562454495577,1.9046232564164693
1492,88.86032399999999,1505150728.5655072,1.6731348140916118,1.8937206416709829
1493,88.862983,1505150728.568182,1.665248821094562,1.8828372665817255
1494,88.865642,1505150728.570816,1.657571891401523,1.8719953752181278
1495,88.86829999999999,1505150728.573466,1.649822542060765,1.8612151329372348
1496,88.870958,1505150728.576156,1.6420937563236806,1.8505146145184586
1497,88.873618,1505150728.578809,1.6344706198257577,1.839909817731344
1498,88.876277,1505150728.581525,1.6269447879162304,1.8294146989090903
1499,88.878935,1505150728.584108,1.619487054317418,1.8190412266471185
1500,88.88159499999999,1505150728.5868511,1.6120980150758037,1.8087994500985627
1501,88.884253,1505150728.5895529,1.6047112110085018,1.7986975790649957
1502,88.886911,1505150728.592413,1.5971546827050855,1.7887420735501807
1503,88.88957099999999,1505150728.594928,1.58959830341329,1.7789377403460298
1504,88.892229,1505150728.597535,1.5820261288896875,1.7692878336641282
1505,88.894887,1505150728.600092,1.574480627446212,1.759794156442168
1506,88.89754599999999,1505150728.6027799,1.5671370367489479,1.7504571594346967
1507,88.900206,1505150728.605435,1.5597454643097797,1.7412760366276805
1508,88.902864,1505150728.608196,1.5521469147292921,1.7322488172527961
1509,88.905523,1505150728.610806,1.5444872703842683,1.723372455637052
1510,88.908183,1505150728.613486,1.5368587694679958,1.7146429197051565
1511,88.91084,1505150728.616069,1.5292015093089049,1.7060552779370541
1512,88.913499,1505150728.618741,1.5216527296097713,1.6976037842702483
1513,88.916032,1505150728.621237,1.5140586503779083,1.6892819610969656
1514,88.91869,1505150728.623938,1.5062663856903544,1.681082681393758
1515,88.92134899999999,1505150728.626556,1.498352676531832,1.6729982512427681
1516,88.924008,1505150728.6292858,1.490460127023466,1.665020493199916
1517,88.926665,1505150728.631891,1.482593356525502,1.6571408297950938
1518,88.929324,1505150728.634526,1.4747328445156125,1.649350366042436
1519,88.931983,1505150728.637269,1.4669730643613972,1.6416399704916682
1520,88.934641,1505150728.63985,1.4590861772946224,1.6340003553661795
1521,88.9373,1505150728.6425228,1.451057282153206,1.6264221568781727
1522,88.93995799999999,1505150728.645198,1.442942556318197,1.618896016397307
1523,88.942618,1505150728.64781,1.4347999653100947,1.6114126618928843
1524,88.94527599999999,1505150728.650517,1.4266380027912857,1.6039629878084376
1525,88.94793399999999,1505150728.653093,1.4185246180608642,1.596538131109022
1526,88.95059499999999,1505150728.655824,1.4103681689720255,1.5891295417455689
1527,88.95325299999999,1505150728.658473,1.4019847751846775,1.5817290466183251
1528,88.955911,1505150728.661154,1.3936453398254716,1.5743289065501191
1529,88.95857099999999,1505150728.663782,1.3853026262106076,1.566921865557661
1530,88.961229,1505150728.6664479,1.3769266830043008,1.559501191448944
1531,88.963887,1505150728.669163,1.3687241893246287,1.552060707161703
1532,88.966546,1505150728.6717582,1.3604226029171111,1.544594813197227
1533,88.969205,1505150728.674467,1.3520505340129456,1.537098502406545
1534,88.97173599999999,1505150728.676967,1.3436069395307861,1.5295673686576647
1535,88.974395,1505150728.679643,1.3351436755146786,1.5219976103216644
1536,88.977055,1505150728.682293,1.3267954484698443,1.514386028593875
1537,88.979714,1505150728.684938,1.3185622583962833,1.50673002031737
1538,88.982374,1505150728.687572,1.310402978086649,1.4990275655797212
1539,88.985034,1505150728.690279,1.3021243394687378,1.4912772114189439
1540,88.987691,1505150728.692883,1.2937753673657995,1.4834780534974912
1541,88.99034999999999,1505150728.695605,1.2854997089803046,1.4756297169695065
1542,88.99301,1505150728.698265,1.2773328290780084,1.467732336509465
1543,88.995668,1505150728.700892,1.2692757707402569,1.4597865347904855
1544,88.99832599999999,1505150728.703535,1.2613835192551326,1.4517933991392624
1545,89.000986,1505150728.706204,1.2533714624268688,1.443754457079574
1546,89.003644,1505150728.708884,1.245262399033451,1.4356716519934942
1547,89.006303,1505150728.711552,1.2372259042993727,1.4275473195260457
1548,89.008963,1505150728.7141562,1.229311599094367,1.4193841640028586
1549,89.01162099999999,1505150728.7168698,1.2214230728997633,1.4111852332571302
1550,89.014279,1505150728.719475,1.2137911447162117,1.4029538906166628
1551,89.016938,1505150728.7221382,1.2061441663589576,1.3946937839435898
1552,89.019598,1505150728.724832,1.198324334521552,1.3864088126557204
1553,89.022256,1505150728.727511,1.1904693359416327,1.3781030937931313
1554,89.02478599999999,1505150728.7300758,1.1825627793409097,1.3697809271190513
1555,89.027445,1505150728.732733,1.1747323676784258,1.3614467577491258
1556,89.03010499999999,1505150728.735327,1.1670539478691786,1.3531051342104858
1557,89.032763,1505150728.737953,1.159498611658729,1.3447606606976437
1558,89.035422,1505150728.740649,1.1518543155106493,1.3364179440891557
1559,89.03808099999999,1505150728.743285,1.1441985454677668,1.3280815378775974
1560,89.04074,1505150728.745916,1.13661102274722,1.3197558856077185
1561,89.043399,1505150728.748649,1.1291135030456485,1.3114452658754499
1562,89.04606,1505150728.751276,1.1216587496792525,1.3031537404106177
1563,89.048717,1505150728.753886,1.1143077084009474,1.2948851067850506
1564,89.05137599999999,1505150728.756602,1.107019102991766,1.2866428575375313
1565,89.054036,1505150728.7591958,1.0996154606113113,1.2784301475216957
1566,89.056694,1505150728.761926,1.0922606940424855,1.270249770803349
1567,89.059353,1505150728.764579,1.0850075533990593,1.2621041474539283
1568,89.062012,1505150728.767217,1.0778557406577909,1.2539953196249025
1569,89.06466999999999,1505150728.7699049,1.0709070307557005,1.245924956055116
1570,89.06733,1505150728.7725499,1.0640137531765552,1.2378943647259142
1571,89.06998899999999,1505150728.775202,1.0570304725784345,1.2299045140653715
1572,89.07264699999999,1505150728.7778401,1.0501206547093782,1.2219560630916824
1573,89.075305,1505150728.780498,1.0433656599143541,1.2140493999420545
1574,89.077964,1505150728.783185,1.0366599879658216,1.2061846871102613
1575,89.080494,1505150728.785722,1.030167998681545,1.1983619113446866
1576,89.083153,1505150728.788393,1.023771972881077,1.190580936578437
1577,89.08581099999999,1505150728.7910368,1.017315448362556,1.1828415588578562
1578,89.08847,1505150728.793738,1.0109016901792103,1.1751435623961335
1579,89.091129,1505150728.79632,1.0044989588558053,1.167486775302702
1580,89.09378699999999,1505150728.799063,0.9982005356669745,1.1598711225875185
1581,89.096446,1505150728.801743,0.9920989568292473,1.152296673555898
1582,89.09910599999999,1505150728.804351,0.9861539892050022,1.1447636812226123
1583,89.10176299999999,1505150728.806978,0.9801792192565929,1.1372726126758181
1584,89.104423,1505150728.809694,0.9742452784922885,1.1298241705814114
1585,89.10708199999999,1505150728.8123899,0.9683424811567355,1.1224193064055656
1586,89.10973899999999,1505150728.814948,0.9625535286994892,1.1150592254850435
1587,89.112398,1505150728.8176289,0.9569232736184164,1.107745383636768
1588,89.11505799999999,1505150728.8202791,0.9514365167281935,1.1004794752459621
1589,89.117717,1505150728.822888,0.945950355884454,1.0932634136239536
1590,89.120375,1505150728.825592,0.9403563106272406,1.086099305181385
1591,89.123035,1505150728.828344,0.9347813388574922,1.0789894188583582
1592,89.125693,1505150728.830879,0.9293905454510776,1.0719361512948078
1593,89.12835199999999,1505150728.833591,0.9241112127370366,1.0649419874365762
1594,89.131012,1505150728.8362272,0.9190323006529987,1.0580094566442033
1595,89.13354199999999,1505150728.838742,0.91400226438059,1.0511410857110415
1596,89.136201,1505150728.841486,0.9088528697999042,1.0443393514064472
1597,89.138858,1505150728.8440828,0.9037724675996582,1.0376066352779405
1598,89.141517,1505150728.8467798,0.8988436102177865,1.030945182414076
1599,89.144177,1505150728.849453,0.894009822249998,1.024357064673139
1600,89.146834,1505150728.852038,0.8893561893317812,1.0178441485780048
1601,89.14949399999999,1505150728.8547058,0.8848664691964667,1.0114080686610412
1602,89.152154,1505150728.857451,0.8803022432507421,1.0050502077451178
1603,89.154811,1505150728.8600278,0.8756799027728976,0.9987716857272664
1604,89.15746999999999,1505150728.862735,0.8711706621152557,0.9925733574874107
1605,89.16013,1505150728.865462,0.8666979293047148,0.9864558189609814
1606,89.16278799999999,1505150728.868149,0.8623937286373216,0.9804194192958703
1607,89.165448,1505150728.870684,0.8582743023797453,0.9744642770516615
1608,89.16810799999999,1505150728.873356,0.8541334184487711,0.9685902992963085
1609,89.170765,1505150728.876006,0.8498880773716019,0.9627972033699792
1610,89.173425,1505150728.878643,0.8457065132681437,0.9570845411607356
1611,89.176085,1505150728.881291,0.8415817225922181,0.9514517248515554
1612,89.178743,1505150728.883911,0.8376160763273285,0.945898052214689
1613,89.18140199999999,1505150728.88659,0.8338423570300554,0.940422729659048
1614,89.184061,1505150728.889249,0.8301216858697943,0.9350248923867346
1615,89.18659199999999,1505150728.891758,0.8263332144220599,0.9297036223477981
1616,89.18925,1505150728.894451,0.8226062847737243,0.9244579652209322
1617,89.191908,1505150728.897166,0.818983663259963,0.9192869470847245
1618,89.19456799999999,1505150728.899767,0.8154532799394894,0.9141895905229078
1619,89.197226,1505150728.902407,0.812058646205583,0.9091649295782541
1620,89.199884,1505150728.905107,0.8087721949083921,0.9042120233602474
1621,89.20254299999999,1505150728.90784,0.8053224268747823,0.8993299686526528
1622,89.205203,1505150728.910496,0.8019721986038804,0.894517911909015
1623,89.20786,1505150728.9133341,0.7987133144565413,0.8897750603548955
1624,89.21051899999999,1505150728.915787,0.7955636558272633,0.885100691159275
1625,89.213178,1505150728.918441,0.7926254446879294,0.8804941576774508
1626,89.215836,1505150728.921037,0.789792137729653,0.8759548926900123
1627,89.218496,1505150728.9237602,0.7869616619921721,0.87148240968966
1628,89.22115699999999,1505150728.926377,0.7840528061421398,0.8670763038003948
1629,89.22381399999999,1505150728.9290712,0.7812224794162798,0.8627362533710621
1630,89.226474,1505150728.931743,0.7784678505937964,0.8584620219900504
1631,89.22913299999999,1505150728.934349,0.7759070858900002,0.8542534596718558
1632,89.231791,1505150728.93694,0.7734187408339227,0.8501105020436837
1633,89.23445,1505150728.939709,0.7709086400812054,0.8460331672549153
1634,89.23711,1505150728.94238,0.7683866183988225,0.8420215510851532
1635,89.239768,1505150728.945046,0.7659525135727235,0.8380758206533804
1636,89.242299,1505150728.9475992,0.7635491051405134,0.8341962064956234
1637,89.244957,1505150728.950164,0.7613112486190348,0.8303829923926814
1638,89.24761699999999,1505150728.9527822,0.7591796373832009,0.8266365026258153
1639,89.250276,1505150728.955498,0.7572181974183438,0.822957087147566
1640,89.252934,1505150728.958195,0.7551506611794627,0.8193451060246297
1641,89.255594,1505150728.960879,0.7531610580182706,0.8158009148662813
1642,89.258253,1505150728.963582,0.7512934953745303,0.8123248524628591
1643,89.26091,1505150728.96618,0.7496110051638487,0.8089172309960622
1644,89.26357,1505150728.968723,0.7481974809287477,0.8055783288969545
1645,89.266229,1505150728.97147,0.7469530848832777,0.8023083870763301
1646,89.26888699999999,1505150728.974112,0.7457884100549466,0.7991076102511758
1647,89.271546,1505150728.9767292,0.7447319176633309,0.7959761755079406
1648,89.274205,1505150728.979477,0.7439355995616674,0.7929142496114264
1649,89.27686299999999,1505150728.982194,0.7434615935958382,0.7899220153986987
1650,89.279522,1505150728.984716,0.7434353675505738,0.7869997069562797
1651,89.28218,1505150728.987382,0.7441392984473287,0.7841476537904981
1652,89.284838,1505150728.9900422,0.7456547466310708,0.7813663358047332
1653,89.287497,1505150728.992762,0.7481737880810373,0.778656453249418
1654,89.29015799999999,1505150728.995401,0.7521716208560241,0.7760190184343898
1655,89.292816,1505150728.9980319,0.7580246483102231,0.7734554785656056
1656,89.295475,1505150729.00074,0.7659598151421437,0.7709678817650567
1657,89.298007,1505150729.003235,0.7761587665175657,0.7685591011287456
1658,89.300664,1505150729.005871,0.7885098927324946,0.7662331334131591
1659,89.30332399999999,1505150729.0085871,0.8030078293685812,0.76399548778829
1660,89.305983,1505150729.011192,0.8198154461273817,0.7618536749205407
1661,89.308641,1505150729.0139499,0.8389384054504875,0.7598177979613898
